"Total Time (s)","Cycle Elapsed Time (s)","Total Cycles","Elapsed Cycles","Step","Total Cycle Count(Tah-Tlak Waveform)","Total Cycle Count(Krut Waveform)","Position(Tah-Tlak:Position) (mm)","Load(Tah-Tlak:Load) (kN)","Rotation(Krut:Rotation) (deg)","Torque(Krut:Torque) (N·m)",
0,0,1,1,1,0,0,-18.0000506043557,8.52160155773163E-06,0.129082105122507,2.86847357255593E-05,
0.01,0.01,1,1,1,0,0,-18.0000076703829,-1.30292028188705E-05,0.13025741558522,-0.000579375782300988,
0.02,0.02,1,1,1,0,0,-18.0000817105311,-1.39325857162476E-05,0.129274092614651,-0.000505149371998161,
0.04,0.04,1,1,1,0,0,-18.0001028981207,2.66358256340027E-05,0.121419955976307,-8.38190329642966E-07,
0.05,0.05,1,1,1,0,0,-18.0000303480887,4.20399010181427E-05,0.120077175088227,-0.000219419601848759,
0.06,0.06,1,1,1,0,0,-17.9999698121185,-9.3504786491394E-06,0.121554611250758,-9.7602607273981E-05,
0.07,0.07,1,1,1,0,0,-18.0000465531023,-1.30198895931244E-05,0.123116034083068,0.000138953330203034,
0.09,0.09,1,1,1,0,0,-18.0001302324396,3.80910933017731E-05,0.122540574520826,-0.000389479106507432,
0.1,0.1,1,1,1,0,0,-18.0001008026448,2.7678906917572E-05,0.123649500310421,-7.64615845152084E-05,
0.12,0.12,1,1,1,0,0,-18.0000836663086,-2.96160578727722E-05,0.122906821779907,-0.000259093944118526,
0.13,0.13,1,1,1,0,0,-18.0001314897251,2.66358256340027E-05,0.121056600473821,-0.000461936003892124,
0.14,0.14,1,1,1,0,0,-18.000137869285,4.7590583562851E-05,0.119467391632497,-8.4843487811638E-05,
0.16,0.16,1,1,1,0,0,-18.0002371017101,4.75440174341202E-05,0.116175315342844,0.000310037289709048,
0.17,0.17,1,1,1,0,0,-18.0002886038509,-1.62050127983093E-06,0.113715436309576,0.000214856121165147,
0.19,0.19,1,1,1,0,0,-18.000701505734,-2.77534127235413E-06,0.111025599762797,0.00029429793796353,
0.2,0.2,1,1,1,0,0,-18.0009067692392,1.7751008272171E-05,0.110801425762475,-0.000600330540542062,
0.22,0.22,1,1,1,0,0,-18.0015725717794,1.29826366901398E-05,0.119221969507635,1.99303033937328E-05,
0.23,0.23,1,1,1,0,0,-18.0021860339884,5.85149973630905E-05,0.122646437957883,0.000614393511628294,
0.25,0.25,1,1,1,0,0,-18.0040583649814,-1.26846134662628E-05,0.118631548248231,-0.000577885666159401,
0.26,0.26,1,1,1,0,0,-18.0049820973209,-3.52039933204651E-06,0.121000022627413,-0.000849273068446023,
0.27,0.27,1,1,1,0,0,-18.0056973530921,5.78165054321289E-05,0.122726275585592,-0.000329874460843932,
0.28,0.28,1,1,1,0,0,-18.0062165654522,4.88199293613434E-05,0.12123488355428,0.000234507027782332,
0.3,0.3,1,1,1,0,0,-18.0067422505044,-3.30805778503418E-05,0.119779449887574,0.000147148968981765,
0.31,0.31,1,1,1,0,0,-18.0067971985389,-8.92207026481628E-06,0.122566097415984,8.18632555284631E-05,
0.32,0.32,1,1,1,0,0,-18.0068906567637,4.12855297327042E-05,0.12420698069036,-0.000175554307930777,
0.33,0.33,1,1,1,0,0,-18.0068819954633,3.7122517824173E-05,0.121624013409019,-0.000303704296107302,
0.34,0.34,1,1,1,0,0,-18.0068996905931,-6.73346221446991E-06,0.115796872414649,-0.000271946195839718,
0.35,0.35,1,1,1,0,0,-18.0068672339998,-6.23054802417755E-06,0.114348731003702,-0.000306963925167024,
0.37,0.37,1,1,1,0,0,-18.0067548233597,3.87523323297501E-05,0.119185382500291,-0.000531692065770188,
0.38,0.38,1,1,1,0,0,-18.0067861157997,1.16880983114243E-05,0.119216437451541,-7.2456897384692E-05,
0.39,0.39,1,1,1,0,0,-18.0067547767936,4.42285090684891E-05,0.118174776434898,0.000248104337574318,
0.4,0.4,1,1,1,0,0,-18.0068810641407,7.26152211427689E-05,0.119812390767038,-3.07336454202421E-06,
0.41,0.41,1,1,1,0,0,-18.0069307967686,3.5800039768219E-05,0.126049658283591,-0.000470411039447403,
0.42,0.42,1,1,1,0,0,-18.0068590849269,-2.13924795389175E-05,0.127067305147648,-0.000516138978542369,
0.43,0.43,1,1,1,0,0,-18.0068439043682,2.58628278970718E-05,0.123004512861371,6.46337876413576E-05,
0.44,0.44,1,1,1,0,0,-18.0067808072608,6.30505383014679E-05,0.121380602940917,0.000343844299671315,
0.45,0.45,1,1,1,0,0,-18.0067596662373,4.81400638818741E-05,0.123146711848676,-0.000194646420994867,
0.46,0.46,1,1,1,0,0,-18.006797943597,3.05194407701492E-05,0.123766176402569,-0.00065667555714584,
0.47,0.47,1,1,1,0,0,-18.0067609235229,-7.8883022069931E-06,0.123525531962514,-0.000177696349884309,
0.49,0.49,1,1,1,0,0,-18.0068428799133,9.3504786491394E-06,0.123737510293722,-0.00045523048125498,
0.5,0.5,1,1,1,0,0,-18.0068535435573,-7.73929059505463E-06,0.12257250957191,-0.000361539428852666,
0.51,0.51,1,1,1,0,0,-18.0069136138662,2.3283064365387E-07,0.121842403896153,-0.000299047683164841,
0.52,0.52,1,1,1,0,0,-18.0069246034731,5.42867928743362E-05,0.123085607774556,-5.25265939909592E-05,
0.53,0.53,1,1,1,0,0,-18.0069886319032,5.70062547922134E-05,0.124712912365794,-0.000215228650200544,
0.54,0.54,1,1,1,0,0,-18.0071715902317,1.62608921527863E-05,0.125282714143395,-0.000380072748363661,
0.55,0.55,1,1,1,0,0,-18.0072785992006,1.56648457050323E-05,0.125753944739699,9.60193588735443E-05,
0.56,0.56,1,1,1,0,0,-18.0075319189529,3.52878123521805E-05,0.124426754191518,0.000205356630762527,
0.57,0.57,1,1,1,0,0,-18.007881537464,1.83749943971634E-05,0.123727829195559,-0.000480655587920817,
0.59,0.59,1,1,1,0,0,-18.0087700658085,-7.45058059692383E-06,0.123889641836286,-0.000151712449665377,
0.6,0.6,1,1,1,0,0,-18.0094965440174,1.68103724718094E-05,0.12404328212142,-6.68689618537389E-05,
0.61,0.61,1,1,1,0,0,-18.0102379233881,7.30156898498535E-06,0.12431938201189,-0.000615138569699088,
0.62,0.62,1,1,1,0,0,-18.0107854479557,-1.83377414941788E-05,0.124007700942457,-0.000754185032160971,
0.63,0.63,1,1,1,0,0,-18.0112032858487,-2.97464430332184E-05,0.124615849927068,-0.000112596900948705,
0.64,0.64,1,1,1,0,0,-18.0116540459962,9.18284058570862E-06,0.124068553559482,-8.94069684952498E-06,
0.65,0.65,1,1,1,0,0,-18.0119342344061,3.54554504156113E-05,0.121762943454087,-0.000773277145225061,
0.66,0.66,1,1,1,0,0,-18.0121288342673,2.15694308280945E-05,0.121435546316206,-0.000818632555284631,
0.67,0.67,1,1,1,0,0,-18.0121940268506,3.78116965293884E-06,0.122843077406287,0.000186264517698437,
0.68,0.68,1,1,1,0,0,-18.0121469950583,-1.03190541267395E-05,0.123451100662351,0.000249501321457056,
0.69,0.69,1,1,1,0,0,-18.0122296499408,-1.2638047337532E-05,0.122744757682085,-0.000882893813890591,
0.7,0.7,1,1,1,0,0,-18.0123529570555,-9.52742993831635E-06,0.122078522108495,-0.00111581759327249,
0.72,0.72,1,1,1,0,0,-18.0123406170308,5.27966767549515E-05,0.124596613459289,0.000120513142950889,
0.73,0.73,1,1,1,0,0,-18.0122937249369,1.2638047337532E-05,0.125424158759415,-0.000590179124327498,
0.74,0.74,1,1,1,0,0,-18.0123053199036,-5.13158738613129E-06,0.125318923965096,-0.00109206886726594,
0.75,0.75,1,1,1,0,0,-18.0124471137723,2.13272869586945E-06,0.126925483345985,-0.000366847967607072,
0.76,0.76,1,1,1,0,0,-18.0125622718141,2.83215194940567E-05,0.127737815491855,0.000229477885804474,
0.77,0.77,1,1,1,0,0,-18.012586067107,3.31923365592957E-05,0.128762377426028,-0.000190362337087803,
0.78,0.78,1,1,1,0,0,-18.0125427606052,-6.00703060626984E-06,0.127025688998401,-0.000307243321943572,
0.79,0.79,1,1,1,0,0,-18.012616661055,1.06822699308395E-05,0.125717734917998,0.00015972182392641,
0.8,0.8,1,1,1,0,0,-18.0128092120065,2.93552875518799E-05,0.125485765747726,6.2678010205524E-05,
0.81,0.81,1,1,1,0,0,-18.0130054416823,2.40933150053024E-05,0.125110968947411,-0.000208243730786853,
0.82,0.82,1,1,1,0,0,-18.013219413054,-1.51805579662323E-05,0.12479966506362,-0.000261794779625153,
0.83,0.83,1,1,1,0,0,-18.0135023022994,-3.18419188261032E-05,0.125416866503656,-4.22820455175452E-05,
0.85,0.85,1,1,1,0,0,-18.0139356001479,6.10575079917908E-05,0.124638355337083,-0.000211689624364274,
0.86,0.86,1,1,1,0,0,-18.0143307137689,8.38190317153931E-06,0.123042734339833,-0.000474229462060221,
0.87,0.87,1,1,1,0,0,-18.0147430568584,-4.76650893688202E-05,0.118776890449226,-9.5460565320449E-05,
0.88,0.88,1,1,1,0,0,-18.0149525113154,-1.73412263393402E-05,0.115065383724868,3.35276131857187E-05,
0.89,0.89,1,1,1,0,0,-18.0151011038392,-4.44240868091583E-06,0.114625333808362,-0.000439584261768311,
0.9,0.9,1,1,1,0,0,-18.0152979854408,-2.25380063056946E-05,0.117983291856945,-0.00020144507589086,
0.91,0.91,1,1,1,0,0,-18.0154138885408,-4.62867319583893E-06,0.119561310857534,0.000628270218196828,
0.92,0.92,1,1,1,0,0,-18.0154179863603,2.29664146900177E-05,0.119379758834839,0.000402703887264021,
0.93,0.93,1,1,1,0,0,-18.0154553323973,2.25286930799484E-05,0.119236428290606,-0.000533554710947173,
0.94,0.94,1,1,1,0,0,-18.0155315145875,3.3155083656311E-05,0.121512995101511,-0.000558793553095311,
0.95,0.95,1,1,1,0,0,-18.0156457413067,2.61794775724411E-05,0.124144745059311,4.37721616591327E-06,
0.97,0.97,1,1,1,0,0,-18.0157113995513,4.96953725814819E-05,0.122563079930842,-0.000413972890584776,
0.98,0.98,1,1,1,0,0,-18.0158234376624,2.90665775537491E-05,0.122410571202636,-0.000523775823768005,
0.99,0.99,1,1,1,0,0,-18.0158681411481,-7.2922557592392E-06,0.123883229680359,0.000431574887507279,
1,1,1,1,1,0,0,-18.0159942422307,-2.56113708019257E-06,0.123009290546179,0.000228080901921736,
1.01,1.01,1,1,1,0,0,-18.0162123114219,2.40933150053024E-05,0.12313979677856,-0.000825244945662925,
1.02,1.02,1,1,1,0,0,-18.0163340818543,2.14669853448868E-05,0.127178700640798,-0.0006851740283537,
1.03,1.03,1,1,1,0,0,-18.0164704740518,2.86940485239029E-05,0.133270877413452,-5.26197262498084E-05,
1.04,1.04,1,1,1,0,0,-18.0165989965732,3.1767413020134E-05,0.134763023816049,0.000248476866609715,
1.05,1.05,1,1,1,0,0,-18.016720534175,2.30316072702408E-05,0.134807280264795,0.000271387402286623,
1.06,1.06,1,1,1,0,0,-18.0170837499964,3.58279794454575E-05,0.135189495049417,0.000252015892445985,
1.07,1.07,1,1,1,0,0,-18.0174903654517,3.90782952308655E-05,0.1347137382254,1.37835743096843E-05,
1.08,1.08,1,1,1,0,0,-18.017857446262,3.03704291582108E-05,0.135627030394971,-0.000303983692883849,
1.09,1.09,1,1,1,0,0,-18.0181519770402,1.5702098608017E-05,0.138076851144433,-0.000230688605169514,
1.1,1.1,1,1,1,0,0,-18.0183471822611,-2.03400850296021E-05,0.138291218318045,3.38070099622663E-05,
1.11,1.11,1,1,1,0,0,-18.0186660205597,-1.23400241136551E-05,0.137678668834269,0.000441633171462994,
1.12,1.12,1,1,1,0,0,-18.0188757544134,1.34110450744629E-06,0.136946425773203,9.32253911080677E-05,
1.13,1.13,1,1,1,0,0,-18.0189228327718,-3.81842255592346E-07,0.134954256936908,-0.000805221510010343,
1.14,1.14,1,1,1,0,0,-18.0190670015132,-7.06873834133148E-06,0.133549114689231,-0.000427197671341365,
1.15,1.15,1,1,1,0,0,-18.019234779283,2.82283872365952E-05,0.13452313374728,0.000410992658301601,
1.17,1.17,1,1,1,0,0,-18.019475200217,-9.91858541965485E-06,0.135709256865084,0.000103097410546085,
1.18,1.18,1,1,1,0,0,-18.019466306086,-3.8808211684227E-05,0.135254999622703,-6.95697973603662E-05,
1.19,1.19,1,1,1,0,0,-18.0194386923704,-7.63684511184692E-07,0.134828025475144,-0.000312086199403731,
1.2,1.2,1,1,1,0,0,-18.0195644674901,4.52622771263123E-05,0.134049388580024,-0.000141281636674264,
1.21,1.21,1,1,1,0,0,-18.0197128737494,2.07126140594482E-05,0.134591404348612,-4.95463617077842E-05,
1.22,1.22,1,1,1,0,0,-18.0198585791731,-3.32575291395187E-05,0.134548530913889,-0.000263564292543288,
1.23,1.23,1,1,1,0,0,-18.0199799305103,-6.00330531597137E-05,0.133838416077197,-0.000313855712321866,
1.24,1.24,1,1,1,0,0,-18.0200830744904,-7.89761543273926E-06,0.134702925570309,-0.000428501522965254,
1.25,1.25,1,1,1,0,0,-18.0202533202651,7.22985714673996E-05,0.135142095386982,-0.000738725077192001,
1.26,1.26,1,1,1,0,0,-18.0204246370608,7.16559588909149E-05,0.132560133934021,-0.000507757075245939,
1.27,1.27,1,1,1,0,0,-18.0206861524522,-1.29546970129013E-05,0.1257513044402,6.25848779466748E-05,
1.28,1.28,1,1,1,0,0,-18.020952790118,-2.49221920967102E-05,0.121602136641741,0.000113528223537197,
1.29,1.29,1,1,1,0,0,-18.0212950511804,2.63750553131104E-05,0.121730002574623,-1.21071936503984E-05,
1.3,1.3,1,1,1,0,0,-18.0216290234715,6.40656799077988E-05,0.122237694449723,-0.000227987769662887,
1.31,1.31,1,1,1,0,0,-18.021760433093,4.63519245386124E-05,0.12331229634583,-0.000294204805704681,
1.32,1.32,1,1,1,0,0,-18.0219105157331,2.98302620649338E-05,0.12617664411664,-0.00022407621479122,
1.33,1.33,1,1,1,0,0,-18.0221161517673,2.31713056564331E-05,0.130345299839973,-0.000127032401070334,
1.34,1.34,1,1,1,0,0,-18.0221280726968,5.06360083818436E-05,0.132456785067916,-1.08033420265093E-05,
1.35,1.35,1,1,1,0,0,-18.0222136612455,5.89434057474136E-05,0.131657780148089,0.000200700017820066,
1.36,1.36,1,1,1,0,0,-18.0223907056754,2.73529440164566E-05,0.131835811771452,0.000253599140846422,
1.37,1.37,1,1,1,0,0,-18.0225196472919,3.05008143186569E-05,0.133154829964042,-0.000176578762778118,
1.38,1.38,1,1,1,0,0,-18.0226585074944,2.67941504716873E-05,0.132965608499944,-0.000268686566779995,
1.39,1.39,1,1,1,0,0,-18.0227623965325,-7.35744833946228E-07,0.133782969787717,-0.000140257181826923,
1.4,1.4,1,1,1,0,0,-18.0228502668216,5.9325248003006E-06,0.133445262908936,2.50525776304398E-05,
1.42,1.42,1,1,1,0,0,-18.0230819798892,4.41912561655045E-05,0.131616415455937,-8.61473394355271E-05,
1.43,1.43,1,1,1,0,0,-18.0232083138024,-5.91389834880829E-06,0.131349368020892,-7.43195425616764E-05,
1.44,1.44,1,1,1,0,0,-18.0234243340839,-3.63215804100037E-05,0.131163164041936,-6.37955973117147E-05,
1.45,1.45,1,1,1,0,0,-18.0236213088178,-1.55437737703323E-05,0.131329880096018,5.38304456148483E-05,
1.46,1.46,1,1,1,0,0,-18.0237315308497,3.84636223316193E-06,0.13116970192641,9.890645889787E-05,
1.47,1.47,1,1,1,0,0,-18.0238869685948,2.73250043392181E-05,0.130863427184522,6.54719779710006E-05,
1.48,1.48,1,1,1,0,0,-18.0241483908539,3.1469389796257E-05,0.129629904404283,-0.000180397185390936,
1.49,1.49,1,1,1,0,0,-18.0245526780028,1.31037086248398E-05,0.126719162799418,-0.000364240264359294,
1.5,1.5,1,1,1,0,0,-18.024771119723,3.18512320518494E-06,0.12219846714288,-0.000198278579089986,
1.51,1.51,1,1,1,0,0,-18.0249241360293,4.49828803539276E-06,0.123285013251007,9.38773169200122E-05,
1.52,1.52,1,1,1,0,0,-18.0251700517668,2.84425914287567E-05,0.126183936372399,0.000375043606385803,
1.53,1.53,1,1,1,0,0,-18.0254485172298,5.2526593208313E-06,0.125494441017509,0.000279117379771108,
1.54,1.54,1,1,1,0,0,-18.0257861216792,-2.35065817832947E-05,0.126755121164024,-8.10250651988201E-05,
1.55,1.55,1,1,1,0,0,-18.0260312923586,-2.0097941160202E-05,0.131841218098998,-5.68106778980233E-05,
1.56,1.56,1,1,1,0,0,-18.026213179666,1.37090682983398E-05,0.134015819057822,-6.66826973360404E-05,
1.57,1.57,1,1,1,0,0,-18.0263033316955,2.84705311059952E-05,0.132398069836199,-7.9721213574931E-05,
1.58,1.58,1,1,1,0,0,-18.0263955792009,6.69620931148529E-06,0.129002016037703,-0.000195577743583359,
1.59,1.59,1,1,1,0,0,-18.0265351378954,-1.49291008710861E-05,0.128478608094156,-0.00029075891212726,
1.6,1.6,1,1,1,0,0,-18.0266764661028,1.21351331472397E-05,0.132087520323694,-0.000180024656355539,
1.61,1.61,1,1,1,0,0,-18.0267253139741,3.21865081787109E-05,0.134296067990363,-0.000388734048436638,
1.62,1.62,1,1,1,0,0,-18.0267492023993,1.22003257274628E-05,0.132076079025865,-0.00079134480344181,
1.63,1.63,1,1,1,0,0,-18.0269227078032,-3.24100255966187E-05,0.13227422721684,-0.000480562455661967,
1.64,1.64,1,1,1,0,0,-18.0269394716103,-2.05356627702713E-05,0.133209396153688,7.52508651501685E-05,
1.65,1.65,1,1,1,0,0,-18.0268830800258,-1.92038714885712E-05,0.134085724130273,2.80328099136148E-05,
1.66,1.66,1,1,1,0,0,-18.0270056420824,1.32806599140167E-05,0.13214522972703,-0.000391155487166718,
1.68,1.68,1,1,1,0,0,-18.027225620485,3.60514968633652E-05,0.126720420084894,-0.000332854693127107,
1.69,1.69,1,1,1,0,0,-18.0273832934044,3.81842255592346E-07,0.127529860474169,-0.000104680658946522,
1.7,1.7,1,1,1,0,0,-18.0275981960987,-3.14787030220032E-06,0.126740536652505,-0.000210758301775781,
1.71,1.71,1,1,1,0,0,-18.0278234830402,6.30505383014679E-06,0.124952676706016,-0.000232085589052252,
1.72,1.72,1,1,1,0,0,-18.0280204112079,2.27242708206177E-06,0.125022833235562,2.22586098649632E-05,
1.73,1.73,1,1,1,0,0,-18.0282444408639,3.92459332942963E-05,0.124690029770136,8.94069684952498E-05,
1.74,1.74,1,1,1,0,0,-18.028544280181,4.04380261898041E-05,0.124604282900691,-6.89178715484217E-06,
1.75,1.75,1,1,1,0,0,-18.028841232398,-1.3355165719986E-05,0.123998271301389,-0.000244751576255746,
1.76,1.76,1,1,1,0,0,-18.0291154603432,-3.40770930051804E-05,0.123438779264688,-0.000494252897712803,
1.77,1.77,1,1,1,0,0,-18.0293495948495,2.82749533653259E-05,0.123257730156183,1.55530872278195E-05,
1.78,1.78,1,1,1,0,0,-18.0295404694203,6.16628676652908E-05,0.123093780130148,0.000331737106020916,
1.79,1.79,1,1,1,0,0,-18.0297937891726,-1.13248825073242E-05,0.123491333797574,1.31316484977398E-05,
1.8,1.8,1,1,1,0,0,-18.0299290172169,-5.39422035217285E-05,0.121770109981298,7.46920715970732E-05,
1.81,1.81,1,1,1,0,0,-18.0300545129397,-4.40236181020737E-05,0.119089200161397,0.000241491947196024,
1.82,1.82,1,1,1,0,0,-18.0302194967417,1.8291175365448E-05,0.117712346836925,-0.000193901362924073,
1.83,1.83,1,1,1,0,0,-18.0303884386647,3.26335430145264E-05,0.118909534066916,-0.000447966165064741,
1.84,1.84,1,1,1,0,0,-18.0305253430897,2.05729156732559E-05,0.121075082570314,-0.000248569998868564,
1.85,1.85,1,1,1,0,0,-18.0306430157026,-1.34669244289398E-05,0.12041425332427,-3.00817196082976E-05,
1.86,1.86,1,1,1,0,0,-18.0307849958358,-2.91131436824799E-05,0.118698938749731,-0.000169128182070181,
1.87,1.87,1,1,1,0,0,-18.0309915166266,-1.03190541267395E-05,0.118499407544732,-0.000700913380099218,
1.88,1.88,1,1,1,0,0,-18.0311370357858,8.16769897937775E-06,0.120127340778708,-0.00021336600502356,
1.89,1.89,1,1,1,0,0,-18.0312343124333,-1.84401869773865E-05,0.122936493717134,0.00079488382927808,
1.9,1.9,1,1,1,0,0,-18.0314071193452,-6.05359673500061E-06,0.123095288872719,0.000139698388273828,
1.91,1.91,1,1,1,0,0,-18.0314939651794,8.87550413608551E-06,0.120010916143656,-0.000748317699853471,
1.93,1.93,1,1,1,0,0,-18.0318507083086,-4.1155144572258E-05,0.120114139281213,0.000408850616348069,
1.94,1.94,1,1,1,0,0,-18.0320114080265,-2.38046050071716E-05,0.120530552230775,0.000158138575525973,
1.95,1.95,1,1,1,0,0,-18.0321329456282,-7.92555510997772E-06,0.12086499016732,-0.000484753407310182,
1.96,1.96,1,1,1,0,0,-18.0321726199718,5.23403286933899E-06,0.120148966088891,-0.000575184830652773,
1.97,1.97,1,1,1,0,0,-18.0322634704933,3.58372926712036E-05,0.119215683080256,7.72997748448514E-06,
1.98,1.98,1,1,1,0,0,-18.0324626338353,1.07195228338242E-05,0.118582639843225,7.85104942098912E-05,
1.99,1.99,1,1,1,0,0,-18.0325750444754,1.91200524568558E-05,0.118545298464596,-0.000496115542889787,
2,2,1,1,1,0,0,-18.0327582356345,2.06660479307175E-05,0.119892479851842,-0.000291038308903808,
2.01,2.01,1,1,1,0,0,-18.0330527664128,1.35228037834167E-05,0.120686329901218,0.000460259623232838,
2.03,2.03,1,1,1,0,0,-18.0336344239544,-2.1178275346756E-05,0.120832426473498,-0.000373274093467668,
2.05,2.05,1,1,1,0,0,-18.034208630915,3.68338078260422E-05,0.118163083679974,0.00020498410172713,
2.06,2.06,1,1,1,0,0,-18.034378597293,7.47665762901306E-05,0.121904388070107,-0.000142399223780455,
2.08,2.08,1,1,1,0,0,-18.0349525248568,1.95857137441635E-05,0.119843697175384,-0.000511668630117606,
2.1,2.1,1,1,1,0,0,-18.0350786259394,3.36393713951111E-05,0.120487050153315,-8.03731393868756E-05,
2.12,2.12,1,1,1,0,0,-18.0354441700673,3.69269400835037E-05,0.123594808392227,8.44709587762412E-05,
2.14,2.14,1,1,1,0,0,-18.0356479900224,-4.05125319957733E-06,0.120471334084868,-0.000224262479308918,
2.16,2.16,1,1,1,0,0,-18.035951182101,-3.25217843055725E-05,0.128582585602999,-0.000694300989720924,
2.18,2.18,1,1,1,0,0,-18.0361404268572,-2.54064798355103E-05,0.118491612374783,0.000155810269054743,
2.2,2.2,1,1,1,0,0,-18.036160636558,2.90572643280029E-06,0.123524777591228,-0.000377837574151279,
2.22,2.22,1,1,1,0,0,-18.0362660157123,1.84867531061172E-05,0.124026308767498,-0.000189058485463914,
2.24,2.24,1,1,1,0,0,-18.0366022231777,5.41098415851593E-06,0.127729140222073,0.00019185245322939,
