"Total Time (s)","Cycle Elapsed Time (s)","Total Cycles","Elapsed Cycles","Step","Total Cycle Count(Tah-Tlak Waveform)","Total Cycle Count(Krut Waveform)","Position(Tah-Tlak:Position) (mm)","Load(Tah-Tlak:Load) (kN)","Rotation(Krut:Rotation) (deg)","Torque(Krut:Torque) (N·m)",
0,0,1,1,1,0,0,-17.0000170515951,-1.74157321453094E-06,0.130648682825267,-0.0001072883621943,
0.01,0.01,1,1,1,0,0,-17.0000264113874,7.91624188423157E-07,0.132668511942029,-0.00023478642455888,
0.02,0.02,1,1,1,0,0,-17.0001221047865,-1.56834721565247E-05,0.134426448494196,-0.000356603419133658,
0.04,0.04,1,1,1,0,0,-17.000055422087,-4.74043190479279E-06,0.134322722442448,9.86270621213224E-05,
0.05,0.05,1,1,1,0,0,-16.9999528369005,-3.67872416973114E-06,0.133757069706917,-0.000138953330203034,
0.07,0.07,1,1,1,0,0,-17.0000029886236,3.20374965667725E-05,0.131605854257941,-0.000116694720338071,
0.08,0.08,1,1,1,0,0,-16.9999252231849,-3.34344804286957E-06,0.135198421776295,-0.00010486692346422,
0.1,0.1,1,1,1,0,0,-17.0000163531032,-2.49221920967102E-05,0.134316310286522,-0.000215880576012488,
0.12,0.12,1,1,1,0,0,-17.0001282980819,-2.88709998130798E-07,0.134712983854115,-0.000234972689076578,
0.13,0.13,1,1,1,0,0,-17.0001750039113,-3.73926013708115E-05,0.134025877341628,-0.000269990418403884,
0.14,0.14,1,1,1,0,0,-17.0001925593426,-2.69431620836258E-05,0.134722287766635,-0.000363122677253103,
0.16,0.16,1,1,1,0,0,-17.0002860641336,-5.81145286560059E-06,0.134672624990344,-0.000145006927028233,
0.17,0.17,1,1,1,0,0,-17.0004183585116,-5.08129596710205E-05,0.135398078709841,-0.000496674336442882,
0.19,0.19,1,1,1,0,0,-17.0009797132201,7.3947012424469E-06,0.136322812177241,-0.000420864677739618,
0.2,0.2,1,1,1,0,0,-17.0016481234636,4.8615038394928E-06,0.134003749117255,-0.000396370893662274,
0.22,0.22,1,1,1,0,0,-17.0038197349801,-2.16066837310791E-06,0.136834275908768,-0.000935699804658098,
0.23,0.23,1,1,1,0,0,-17.0049557157445,3.97767871618271E-05,0.138019644655287,-0.000423099851952,
0.25,0.25,1,1,1,0,0,-17.0065292784413,-1.96974724531174E-05,0.136914616450667,-0.000200793150078915,
0.26,0.26,1,1,1,0,0,-17.0067316548464,-2.61235982179642E-05,0.136139248497784,-0.000594370075975712,
0.27,0.27,1,1,1,0,0,-17.006903996097,7.17118382453918E-07,0.13687978964299,-0.00030146912189492,
0.28,0.28,1,1,1,0,0,-17.0070466281561,3.50084155797958E-05,0.136654106900096,-0.000130664559165454,
0.3,0.3,1,1,1,0,0,-17.0070631125664,3.16835939884186E-05,0.133000686764717,5.93252488869522E-05,
0.31,0.31,1,1,1,0,0,-17.0070402485961,-2.16998159885406E-06,0.132916951552033,0.000188220295134271,
0.32,0.32,1,1,1,0,0,-17.0070264650214,4.00468707084656E-07,0.133962007239461,-8.00937426103279E-06,
0.33,0.33,1,1,1,0,0,-17.0070173380597,1.97254121303558E-05,0.134202023036778,-0.000150967391594583,
0.34,0.34,1,1,1,0,0,-17.0070228328632,3.22703272104263E-05,0.13332795817405,-0.000438839203697518,
0.35,0.35,1,1,1,0,0,-17.0070484908013,-1.53388828039169E-05,0.134857948869467,-0.000222213569614235,
0.37,0.37,1,1,1,0,0,-17.0069393863565,1.16601586341858E-05,0.13505773153156,0.000271946195839718,
0.38,0.38,1,1,1,0,0,-17.0069157773281,1.32340937852859E-05,0.13284201733768,-0.000244472179479199,
0.39,0.39,1,1,1,0,0,-17.0069525180054,2.59745866060257E-05,0.133667550981045,-0.000192783775817882,
0.4,0.4,1,1,1,0,0,-17.0069810630437,4.47127968072891E-05,0.134830917231739,0.000215880576012488,
0.41,0.41,1,1,1,0,0,-17.0069746369176,-2.00234353542328E-06,0.134367356076837,-4.22820455175452E-05,
0.43,0.43,1,1,1,0,0,-17.0068661378325,2.89641320705414E-06,0.124016501940787,0.000115111471937634,
0.44,0.44,1,1,1,0,0,-17.0068696768585,6.80796802043915E-06,0.123599586077034,0.000104214997652275,
0.45,0.45,1,1,1,0,0,-17.0069255562156,6.78934156894684E-06,0.125347087159753,-0.000216718766342131,
0.46,0.46,1,1,1,0,0,-17.0069394329226,8.09319317340851E-06,0.126854823902249,-0.000303983692883849,
0.47,0.47,1,1,1,0,0,-17.0069201079783,-1.13807618618011E-05,0.124276508577168,-0.000113621355796047,
0.49,0.49,1,1,1,0,0,-17.006913961249,2.63750553131104E-05,0.119629581458867,-0.0002085231275634,
0.5,0.5,1,1,1,0,0,-17.0069195957509,1.78348273038864E-05,0.123114273883402,-0.000310782347779842,
0.51,0.51,1,1,1,0,0,-17.0068675813826,7.41332769393921E-06,0.125555922277272,-0.000180769714426333,
0.52,0.52,1,1,1,0,0,-17.0068905850513,1.94832682609558E-05,0.125312134623528,-0.000267289582897257,
0.53,0.53,1,1,1,0,0,-17.0069184781637,1.49756669998169E-05,0.128192701376975,-0.000377185648339335,
0.54,0.54,1,1,1,0,0,-17.0069817149695,-1.74436718225479E-05,0.133832758292556,-0.000298116360576348,
0.55,0.55,1,1,1,0,0,-17.0070472800819,-1.44448131322861E-05,0.135884019546211,-9.96515169686638E-05,
0.56,0.56,1,1,1,0,0,-17.0070584559533,-4.23751771450043E-06,0.136110708117485,2.70083550662734E-05,
0.57,0.57,1,1,1,0,0,-17.0070575246307,3.82773578166962E-06,0.131187555380166,-0.000121816994574778,
0.59,0.59,1,1,1,0,0,-17.0071394810212,-7.99354165792465E-05,0.12521306052804,0.000208616259822249,
0.6,0.6,1,1,1,0,0,-17.0073750125115,-4.20864671468735E-05,0.133072729222476,0.00061495230518139,
0.61,0.61,1,1,1,0,0,-17.0076700555171,2.82563269138336E-05,0.136669571511447,0.000341702257717783,
0.62,0.62,1,1,1,0,0,-17.0082407234518,2.89641320705414E-05,0.134588009677827,-5.82076617807616E-05,
0.63,0.63,1,1,1,0,0,-17.009032394244,2.51457095146179E-07,0.131651870906353,4.80562455661967E-05,
0.64,0.64,1,1,1,0,0,-17.0099205034933,9.58330929279327E-06,0.132571198046207,-1.25728549446445E-05,
0.65,0.65,1,1,1,0,0,-17.0108573209156,2.21002846956253E-05,0.135595095343888,-0.000146310778652122,
0.66,0.66,1,1,1,0,0,-17.0117179561477,-3.64147126674652E-06,0.137267662212253,1.82539227344468E-05,
0.67,0.67,1,1,1,0,0,-17.0124540269795,-7.0035457611084E-06,0.136159113608301,-0.000180210920873238,
0.68,0.68,1,1,1,0,0,-17.0129431110528,-1.37556344270706E-05,0.137082589790225,-0.000348780309390323,
0.69,0.69,1,1,1,0,0,-17.0132000629634,7.90692865848541E-06,0.139918774366379,-0.000498257584843319,
0.7,0.7,1,1,1,0,0,-17.013342555324,1.96509063243866E-05,0.140959555283189,-0.000239349905242492,
0.72,0.72,1,1,1,0,0,-17.0134489589332,6.0591846704483E-05,0.142072504386306,0.000232551250346499,
0.73,0.73,1,1,1,0,0,-17.0134582255933,2.2202730178833E-05,0.143117057159543,-9.74163427562825E-05,
0.74,0.74,1,1,1,0,0,-17.0134699602583,-4.24496829509735E-05,0.14128066599369,-0.000534579165794514,
0.75,0.75,1,1,1,0,0,-17.0135134995907,-2.07405537366867E-05,0.140022877603769,-0.000375974928974295,
0.76,0.76,1,1,1,0,0,-17.0135188081297,2.73901969194412E-05,0.139015037566423,6.70552263714373E-05,
0.77,0.77,1,1,1,0,0,-17.0135220211927,2.7799978852272E-05,0.137769570574164,0.000173132869200697,
0.78,0.78,1,1,1,0,0,-17.0135097277341,-6.24079257249832E-05,0.137716638855636,0.000109896065442078,
0.79,0.79,1,1,1,0,0,-17.013469494597,-6.7809596657753E-05,0.13872561044991,3.75323003162351E-05,
0.8,0.8,1,1,1,0,0,-17.0134978068046,2.27708369493485E-05,0.136857787147164,5.27128585086577E-05,
0.81,0.81,1,1,1,0,0,-17.0134905424882,6.51553273200989E-05,0.135417566634715,0.000293925408928134,
0.82,0.82,1,1,1,0,0,-17.013422183408,2.48663127422333E-06,0.134728699922562,0.000111758710619062,
0.83,0.83,1,1,1,0,0,-17.013382741895,-1.78813934326172E-06,0.136489276774228,-0.000316556547828494,
0.85,0.85,1,1,1,0,0,-17.0133821365353,2.99699604511261E-05,0.135666383430362,2.42143873007968E-06,
0.86,0.86,1,1,1,0,0,-17.0133919154228,3.2130628824234E-06,0.135096581652761,9.12696136722341E-06,
0.87,0.87,1,1,1,0,0,-17.0134691686341,-1.99396163225174E-05,0.136040425859392,-0.000318512325264327,
0.88,0.88,1,1,1,0,0,-17.0135285870172,6.83590769767761E-06,0.137284761294723,-0.000300072138012182,
0.89,0.89,1,1,1,0,0,-17.013460600466,3.6945566534996E-05,0.138066289946437,-0.000233389440676142,
0.9,0.9,1,1,1,0,0,-17.0134262812275,1.65123492479324E-05,0.137813952751458,-0.000347010796472188,
0.91,0.91,1,1,1,0,0,-17.0134604607676,-2.13459134101868E-05,0.137114273384213,-1.05239452499617E-05,
0.92,0.92,1,1,1,0,0,-17.0135618352346,-4.05684113502502E-05,0.134847890585661,-2.25380066415109E-05,
0.93,0.93,1,1,1,0,0,-17.0137073078277,-1.1790543794632E-05,0.134665332734585,-0.000394880777520686,
0.94,0.94,1,1,1,0,0,-17.0137433034469,-1.34389847517014E-05,0.135297244414687,-0.000262632969954796,
0.95,0.95,1,1,1,0,0,-17.0138278675407,-2.24541872739792E-05,0.135417315177619,-1.96509066171851E-05,
0.97,0.97,1,1,1,0,0,-17.0146287584268,-2.09547579288483E-06,0.135109908878803,-0.00016205013039764,
0.98,0.98,1,1,1,0,0,-17.0150778421936,-1.89058482646942E-06,0.135367652401328,-0.000662263492676793,
0.99,0.99,1,1,1,0,0,-17.0155945399826,9.86270606517792E-06,0.136822205968201,-0.000316742812346192,
1,1,1,1,1,0,0,-17.0163311230418,9.79751348495483E-06,0.136109702289104,0.000309664760673651,
1.01,1.01,1,1,1,0,0,-17.0170120130084,1.24983489513397E-05,0.134793953038752,0.000130571426906604,
1.02,1.02,1,1,1,0,0,-17.0176369304857,1.70059502124786E-05,0.136742116883397,-0.000275392089417139,
1.03,1.03,1,1,1,0,0,-17.0180779117457,1.0589137673378E-05,0.138274119235575,-0.000150594862559186,
1.04,1.04,1,1,1,0,0,-17.0183812435227,1.72946602106094E-05,0.137193859554827,0.000130292030130057,
1.05,1.05,1,1,1,0,0,-17.0185964721799,7.81379640102386E-06,0.135950278490782,-0.000288989399209125,
1.06,1.06,1,1,1,0,0,-17.0187001283874,-1.89058482646942E-06,0.134931500069797,-0.000756233941855654,
1.07,1.07,1,1,1,0,0,-17.0187837145924,3.39001417160034E-06,0.132933673448861,-0.000346452002919093,
1.08,1.08,1,1,1,0,0,-17.0188540760163,3.9832666516304E-05,0.13279486913234,0.000202935192032447,
1.09,1.09,1,1,1,0,0,-17.0189014803376,8.20495188236237E-06,0.134592787362635,0.000103004278287236,
1.1,1.1,1,1,1,0,0,-17.018968861529,-5.10085374116898E-05,0.134840975515544,-0.000223051759943878,
1.11,1.11,1,1,1,0,0,-17.0189246237046,-5.05708158016205E-05,0.133982375264168,-0.000115390868714182,
1.12,1.12,1,1,1,0,0,-17.0189882330395,5.96046447753906E-06,0.133716207928956,0.000242516402043365,
1.13,1.13,1,1,1,0,0,-17.0191066507105,1.01048499345779E-05,0.134172099642456,0.000135134907590216,
1.14,1.14,1,1,1,0,0,-17.0190996192247,-1.35879963636398E-05,0.135298501700163,-8.59610749178287E-05,
1.15,1.15,1,1,1,0,0,-17.019138129415,-2.80141830444336E-05,0.135155548341572,-6.11878940639365E-05,
1.17,1.17,1,1,1,0,0,-17.0190200377069,3.53343784809113E-05,0.13392680324614,-0.000513438143035742,
1.18,1.18,1,1,1,0,0,-17.0189977325302,6.18398189544678E-06,0.133308218792081,-0.00064000488281183,
1.19,1.19,1,1,1,0,0,-17.0190295837638,-5.23030757904053E-05,0.133829740807414,-0.000383984303235328,
1.2,1.2,1,1,1,0,0,-17.0190144032051,-1.02445483207703E-05,0.135013349354267,4.03262680817116E-05,
1.21,1.21,1,1,1,0,0,-17.0190218072199,1.40722841024399E-05,0.134260738268495,0.000100769104074854,
1.22,1.22,1,1,1,0,0,-17.0190370809109,-2.07498669624329E-05,0.134587632492185,-0.000477023429825697,
1.23,1.23,1,1,1,0,0,-17.0191094912445,-9.63080674409866E-05,0.135326036252081,-0.000579375782300988,
1.24,1.24,1,1,1,0,0,-17.0190900731679,-6.75208866596222E-05,0.134391621686518,-7.66478490329068E-05,
1.25,1.25,1,1,1,0,0,-17.0190714001494,6.35161995887756E-06,0.134935523383319,0.000331830238279765,
1.26,1.26,1,1,1,0,0,-17.0193127989722,4.09223139286041E-05,0.135308685712516,0.000532623388358681,
1.27,1.27,1,1,1,0,0,-17.0195011589718,-2.16346234083176E-05,0.134625476785004,0.000244099650443802,
1.28,1.28,1,1,1,0,0,-17.0196866784375,-6.27245754003525E-05,0.133814779110253,-0.000300537799306428,
1.29,1.29,1,1,1,0,0,-17.0200816523602,-3.92086803913116E-05,0.13423974160105,-0.000355020170733221,
1.3,1.3,1,1,1,0,0,-17.0205093157068,1.82166695594788E-05,0.133723500184715,-0.000292621557304244,
1.31,1.31,1,1,1,0,0,-17.021019727068,2.42143869400024E-07,0.134681677445769,0.000286195431443648,
1.32,1.32,1,1,1,0,0,-17.0216568448716,2.96160578727722E-06,0.134532814845443,0.000550784178834278,
1.33,1.33,1,1,1,0,0,-17.0222706330435,1.44354999065399E-06,0.133944028057158,-0.000274553899087496,
1.34,1.34,1,1,1,0,0,-17.02281419949,2.08895653486252E-05,0.134770567528903,-0.00084256754580888,
1.35,1.35,1,1,1,0,0,-17.0232602564583,2.46800482273102E-06,0.134721156209707,-0.000541564085208206,
1.36,1.36,1,1,1,0,0,-17.023642797224,9.3504786491394E-06,0.133380386978388,7.98143458337803E-05,
1.37,1.37,1,1,1,0,0,-17.0238711575302,-1.60373747348785E-05,0.133749274536967,0.000349525367461117,
1.38,1.38,1,1,1,0,0,-17.0240303205657,-4.47966158390045E-06,0.133586078882217,-3.98606067874655E-05,
1.39,1.39,1,1,1,0,0,-17.0241727197941,1.66334211826324E-05,0.133898137137294,-0.000275578353934838,
1.4,1.4,1,1,1,0,0,-17.0242699498755,4.16301190853119E-05,0.134453605860472,1.9185245322939E-05,
1.42,1.42,1,1,1,0,0,-17.0241782145976,2.23517417907715E-07,0.136145912110806,-0.000354181980403578,
1.43,1.43,1,1,1,0,0,-17.0241723472651,-1.6428530216217E-05,0.136611610651016,-0.000186264517698437,
1.44,1.44,1,1,1,0,0,-17.0241899492626,-2.38418579101563E-05,0.133945913985372,0.000235531482629674,
1.45,1.45,1,1,1,0,0,-17.0242033137422,-2.91597098112106E-05,0.130787109956145,0.000117812307444261,
1.46,1.46,1,1,1,0,0,-17.0242375398484,-1.48080289363861E-05,0.130492150783539,-0.000343471770635918,
1.47,1.47,1,1,1,0,0,-17.0242787043082,-6.09084963798523E-06,0.13324195984751,-0.000688340525154574,
1.48,1.48,1,1,1,0,0,-17.0242692048175,4.56254929304123E-05,0.133906058035791,-0.000259373340895073,
1.49,1.49,1,1,1,0,0,-17.0242470859053,3.80352139472961E-05,0.132588925771415,0.000303145502554206,
1.5,1.5,1,1,1,0,0,-17.0242726972773,4.58210706710815E-06,0.131822107359767,0.000162795188468434,
1.51,1.51,1,1,1,0,0,-17.0242986811783,-2.87313014268875E-05,0.133915613405406,-0.000315625225240001,
1.52,1.52,1,1,1,0,0,-17.024332348491,-3.07057052850723E-05,0.134006012231112,-0.000462494797445219,
1.53,1.53,1,1,1,0,0,-17.0243528375886,-3.3937394618988E-05,0.131256328895688,-0.000168103727222839,
1.54,1.54,1,1,1,0,0,-17.0244212898011,-1.45100057125092E-05,0.130771268159151,0.000187288972545778,
1.55,1.55,1,1,1,0,0,-17.024638893331,-1.16322189569473E-05,0.130491773597896,6.32368037586194E-05,
1.56,1.56,1,1,1,0,0,-17.0248382895037,-2.59466469287872E-05,0.130285075865686,-0.000188034030616572,
1.57,1.57,1,1,1,0,0,-17.0250239021016,-1.39139592647552E-05,0.131978136487305,1.4062971086232E-05,
1.58,1.58,1,1,1,0,0,-17.025230283194,-9.49949026107788E-07,0.132507076486945,-6.2678010205524E-05,
1.59,1.59,1,1,1,0,0,-17.0254168271145,-2.20723450183868E-06,0.131483017466962,-0.000159349294891013,
1.6,1.6,1,1,1,0,0,-17.0257139655961,-1.72574073076248E-05,0.131388218142092,-0.000138673933426486,
1.61,1.61,1,1,1,0,0,-17.0261650982726,-9.23871994018555E-06,0.132593703456223,-0.000288710002432577,
1.62,1.62,1,1,1,0,0,-17.0265816323139,-3.21120023727417E-05,0.134789678268135,-0.000624731192360558,
1.63,1.63,1,1,1,0,0,-17.0269414488077,5.01982867717743E-06,0.137295825406909,-0.0006613321700883,
1.64,1.64,1,1,1,0,0,-17.0273578897167,-1.61956995725632E-05,0.135471755638719,-7.35744844908826E-05,
1.65,1.65,1,1,1,0,0,-17.0277005233082,-4.42285090684891E-05,0.133638633415103,1.28522517211922E-05,
1.66,1.66,1,1,1,0,0,-17.0279254842868,-4.9639493227005E-05,0.133879529312253,-0.000427942729412159,
1.68,1.68,1,1,1,0,0,-17.0284457211017,1.63260847330093E-05,0.131462523713708,-0.000361632561111515,
1.69,1.69,1,1,1,0,0,-17.0286417179468,-3.43658030033112E-06,0.130911832675338,-0.000168103727222839,
1.7,1.7,1,1,1,0,0,-17.0287490063125,-5.30946999788284E-05,0.130129046738148,-0.000133924188225176,
1.71,1.71,1,1,1,0,0,-17.0288167134669,-4.89689409732819E-05,0.130191156640649,-0.000467337674905378,
1.72,1.72,1,1,1,0,0,-17.028886795494,-1.27777457237244E-05,0.130908186547458,-0.000402424490487473,
1.73,1.73,1,1,1,0,0,-17.0290405568584,5.05708158016205E-06,0.130784218199551,1.30385162388906E-06,
1.74,1.74,1,1,1,0,0,-17.0291389045269,-1.09989196062088E-05,0.131568261422217,-0.000117253513891166,
1.75,1.75,1,1,1,0,0,-17.0291868210756,-1.43144279718399E-05,0.132070924155414,-0.000316835944605041,
1.76,1.76,1,1,1,0,0,-17.0292833992312,-1.10827386379242E-06,0.130151552148163,-0.00020135194363201,
1.77,1.77,1,1,1,0,0,-17.0293789063658,1.93808227777481E-05,0.129642854444683,-0.000217370692154076,
1.78,1.78,1,1,1,0,0,-17.0293604661779,-1.53016299009323E-05,0.132147744297981,-2.79396776547655E-05,
1.79,1.79,1,1,1,0,0,-17.0294447508749,-4.74974513053894E-06,0.132711636833847,-0.000207126143680662,
1.8,1.8,1,1,1,0,0,-17.0295628891491,-1.57672911882401E-05,0.128128076903522,-0.000199768695231574,
1.81,1.81,1,1,1,0,0,-17.0296390713394,-3.25031578540802E-06,0.124508352018893,0.000278558586218012,
1.82,1.82,1,1,1,0,0,-17.0295944144198,1.68289989233017E-05,0.125842080451548,6.69620941125881E-05,
1.83,1.83,1,1,1,0,0,-17.0295849149291,-9.87201929092407E-06,0.13013357296586,-0.000361632561111515,
1.84,1.84,1,1,1,0,0,-17.0297423550178,-4.17139381170273E-05,0.131187429651618,-0.000477675355637642,
1.85,1.85,1,1,1,0,0,-17.0299422168518,-1.68010592460632E-05,0.129357199184597,-0.000349897896496514,
1.86,1.86,1,1,1,0,0,-17.0300864787255,6.7148357629776E-06,0.1310407044366,-0.000202748927514749,
1.87,1.87,1,1,1,0,0,-17.0302675744087,3.23168933391571E-06,0.134558463469148,-0.000232271853569951,
1.88,1.88,1,1,1,0,0,-17.0305206147642,-2.98861414194107E-05,0.133933215402067,-0.000342540448047426,
1.89,1.89,1,1,1,0,0,-17.0308645522074,-1.8589198589325E-05,0.13075266033411,-0.000468734658788117,
1.9,1.9,1,1,1,0,0,-17.0311431573688,1.0170042514801E-05,0.130621022544801,-0.000617094347134922,
1.91,1.91,1,1,1,0,0,-17.0314863031877,1.76392495632172E-05,0.131416381336749,-0.000379607087069415,
1.93,1.93,1,1,1,0,0,-17.0322918506869,2.18115746974945E-05,0.134859080426395,-0.000113528223537197,
1.94,1.94,1,1,1,0,0,-17.0325519225282,5.68293035030365E-05,0.133967539295554,-0.00040046871305164,
1.95,1.95,1,1,1,0,0,-17.0328291772718,6.40470534563065E-05,0.132504059001803,-0.000697374354262948,
1.96,1.96,1,1,1,0,0,-17.0331067114123,1.77137553691864E-05,0.130728394724429,-0.000464543707139902,
1.97,1.97,1,1,1,0,0,-17.0332903216666,3.06405127048492E-06,0.126300863921642,-0.00020256266299705,
1.98,1.98,1,1,1,0,0,-17.0333670626504,5.75557351112366E-06,0.124392933212221,-0.000150687994818036,
1.99,1.99,1,1,1,0,0,-17.0334343507096,-1.26194208860397E-05,0.126121826469898,-0.000425800687458627,
2,2,1,1,1,0,0,-17.0335515576612,-1.52736902236938E-06,0.130938738584518,-0.000779610138826808,
2.01,2.01,1,1,1,0,0,-17.0336712326177,3.81842255592346E-06,0.13446819037199,-0.00064112246991802,
2.03,2.03,1,1,1,0,0,-17.0338073919845,-2.15973705053329E-05,0.135506708174944,-0.000108685346077038,
2.05,2.05,1,1,1,0,0,-17.0337326067783,4.03262674808502E-05,0.132444337941706,-0.000257696960235788,
2.06,2.06,1,1,1,0,0,-17.033805063678,1.54878944158554E-05,0.133545845746994,-7.93486845395341E-05,
2.08,2.08,1,1,1,0,0,-17.033897171485,3.18512320518494E-06,0.136627578176558,-0.00029075891212726,
2.1,2.1,1,1,1,0,0,-17.0340373355391,1.13435089588165E-05,0.134910377673805,-0.000243913385926103,
2.12,2.12,1,1,1,0,0,-17.0342548925029,-1.22003257274628E-05,0.132895326241851,-1.99303033937328E-05,
2.14,2.14,1,1,1,0,0,-17.0346176426629,3.00072133541107E-05,0.137405460700393,-0.000109989197700927,
2.16,2.16,1,1,1,0,0,-17.0350139204373,-8.82428139448166E-05,0.136269377544522,-0.000925734652961232,
2.18,2.18,1,1,1,0,0,-17.0358305972417,1.3718381524086E-05,0.138139086775482,-1.58324840043671E-06,
2.2,2.2,1,1,1,0,0,-17.0367868793068,-1.08964741230011E-05,0.133109693415463,-0.000521354385037925,
2.22,2.22,1,1,1,0,0,-17.0374601324279,4.4284388422966E-05,0.124886417761445,-0.000249687585974755,
2.24,2.24,1,1,1,0,0,-17.0379556426273,-1.97533518075943E-05,0.129225309938192,-0.000192224982264787,
2.26,2.26,1,1,1,0,0,-17.0380850033391,1.72294676303864E-06,0.137688098475337,-0.000189244749981612,
2.28,2.28,1,1,1,0,0,-17.0381912672499,1.13062560558319E-05,0.133827729150653,-3.17581002675835E-05,
