"Total Time (s)","Cycle Elapsed Time (s)","Total Cycles","Elapsed Cycles","Step","Total Cycle Count(Tah-Tlak Waveform)","Total Cycle Count(Krut Waveform)","Position(Tah-Tlak:Position) (mm)","Load(Tah-Tlak:Load) (kN)","Rotation(Krut:Rotation) (deg)","Torque(Krut:Torque) (N·m)",
0,0,1,1,1,0,0,-18.4999271235495,-3.00351530313492E-05,0.118977427482605,0.000108778478335887,
0.01,0.01,1,1,1,0,0,-18.499972804924,-2.50805169343948E-05,0.119581804610789,4.7311187495403E-05,
0.02,0.02,1,1,1,0,0,-18.4999786256903,-1.46869570016861E-05,0.120241879485548,-0.000132620336601287,
0.04,0.04,1,1,1,0,0,-18.5000050752527,-4.00841236114502E-05,0.122686293907464,0.000222586098649632,
0.05,0.05,1,1,1,0,0,-18.5000899653094,-1.97254121303558E-05,0.12174257542938,0.000238511714912849,
0.07,0.07,1,1,1,0,0,-18.5000796741945,-3.81376594305038E-05,0.121812480501831,-0.000593066224351823,
0.09,0.09,1,1,1,0,0,-18.5000804658187,-1.30478292703629E-05,0.124557386152446,9.49949040262029E-06,
0.1,0.1,1,1,1,0,0,-18.5001515257345,-5.69038093090057E-05,0.124557763338089,-0.000115670265490729,
0.12,0.12,1,1,1,0,0,-18.5001341100016,-3.85846942663193E-05,0.123616685159504,-0.000105891378311561,
0.13,0.13,1,1,1,0,0,-18.5001399773341,5.03845512866974E-06,0.126805538311601,-0.000198930504901931,
0.14,0.14,1,1,1,0,0,-18.5001160889089,-1.24145299196243E-05,0.129230841994286,-0.000240188095572134,
0.16,0.16,1,1,1,0,0,-18.5001793257147,-6.23427331447601E-05,0.128958513960242,0.000758562248326885,
0.17,0.17,1,1,1,0,0,-18.5001439354552,-5.06918877363205E-05,0.129681704565883,0.000545196243303325,
0.19,0.19,1,1,1,0,0,-18.5003057061941,-7.75791704654694E-05,0.127692930400372,-0.000471249229777046,
0.2,0.2,1,1,1,0,0,-18.5003453339715,-4.35207039117813E-05,0.131183657795191,0.0001369975527672,
0.22,0.22,1,1,1,0,0,-18.5004592347278,-5.70062547922134E-05,0.130074606277049,-8.66130007297732E-05,
0.23,0.23,1,1,1,0,0,-18.5006622630587,-9.68761742115021E-05,0.1293207379058,-0.00054463744975023,
0.25,0.25,1,1,1,0,0,-18.5012469008327,-4.82052564620972E-05,0.131932622753084,-0.000224355611567767,
0.26,0.26,1,1,1,0,0,-18.5019230876201,-4.76744025945663E-05,0.133366556838155,-0.000207219275939511,
0.27,0.27,1,1,1,0,0,-18.5027037222392,-6.41774386167526E-05,0.133497440256178,0.000285636637890553,
0.28,0.28,1,1,1,0,0,-18.5036396549051,-3.16929072141647E-05,0.134980282746255,0.000626314440760994,
0.3,0.3,1,1,1,0,0,-18.5060537362654,-1.96695327758789E-05,0.137129235081375,-0.000491924591241572,
0.31,0.31,1,1,1,0,0,-18.5069779808323,-5.46034425497055E-05,0.137918936088681,-0.000627432027867185,
0.32,0.32,1,1,1,0,0,-18.5075798946409,-4.54206019639969E-05,0.137382955290377,0.00021336600502356,
0.33,0.33,1,1,1,0,0,-18.5079319811569,-3.9590522646904E-05,0.137075800448656,0.00074002892881589,
0.34,0.34,1,1,1,0,0,-18.508232146437,-5.39515167474747E-05,0.135993529111147,0.000547803946551103,
0.35,0.35,1,1,1,0,0,-18.5084498896653,-8.52253288030624E-05,0.134413875639439,0.000146217646393273,
0.37,0.37,1,1,1,0,0,-18.5084205064367,-5.96046447753906E-06,0.134808537550271,9.42498459554091E-05,
0.38,0.38,1,1,1,0,0,-18.508386839124,-1.81235373020172E-05,0.133933466859162,-0.000200979414596613,
0.39,0.39,1,1,1,0,0,-18.5083826481722,-7.68247991800308E-05,0.132796503603458,2.07684937233757E-05,
0.4,0.4,1,1,1,0,0,-18.5084506812895,-6.15231692790985E-05,0.132668134756386,0.000397581613027314,
0.41,0.41,1,1,1,0,0,-18.5083725898879,-2.08336859941483E-05,0.133116482757032,0.000503472991338875,
0.43,0.43,1,1,1,0,0,-18.5083284917619,-5.07291406393051E-05,0.134579837322235,-0.000642240057024211,
0.44,0.44,1,1,1,0,0,-18.508331378862,-2.80700623989105E-05,0.133010493591428,-0.000148266556087956,
0.45,0.45,1,1,1,0,0,-18.508326023757,5.2526593208313E-06,0.133208641782403,0.000257790092494637,
0.46,0.46,1,1,1,0,0,-18.5082637648399,-1.03004276752472E-05,0.134677654132247,3.97674745286163E-05,
0.47,0.47,1,1,1,0,0,-18.5082301906595,-3.1646341085434E-05,0.133906560949981,-9.69506814620364E-05,
0.49,0.49,1,1,1,0,0,-18.5082582700365,-1.11665576696396E-05,0.132138314656913,-0.000429432845553746,
0.5,0.5,1,1,1,0,0,-18.5081331468426,-7.99074769020081E-06,0.131078674457967,-0.000404939061476402,
0.51,0.51,1,1,1,0,0,-18.508197640934,-6.6608190536499E-05,0.12828724924475,-0.000138953330203034,
0.52,0.52,1,1,1,0,0,-18.508285138694,-9.99681651592255E-05,0.124032469466329,1.33179130154382E-05,
0.53,0.53,1,1,1,0,0,-18.5082648824271,-4.76092100143433E-05,0.122335636988282,0.000245030973032294,
0.54,0.54,1,1,1,0,0,-18.5082431360439,2.93925404548645E-05,0.122250141575933,2.3003667935757E-05,
0.55,0.55,1,1,1,0,0,-18.5081694684248,-3.94880771636963E-06,0.1232646452263,-0.000380817806434454,
0.56,0.56,1,1,1,0,0,-18.5081745906992,-5.57117164134979E-05,0.128024350851774,-7.30156909377873E-05,
0.57,0.57,1,1,1,0,0,-18.5082345213097,-4.7953799366951E-05,0.133682009764016,0.000467989600717323,
0.59,0.59,1,1,1,0,0,-18.5083155929436,-3.35276126861572E-05,0.132858362048864,3.9208680975521E-05,
0.6,0.6,1,1,1,0,0,-18.50828229816,-7.67409801483154E-05,0.131553676910698,-0.000134576114037121,
0.61,0.61,1,1,1,0,0,-18.5082726124048,-5.7881698012352E-05,0.129759153351188,-0.00021327287276471,
0.62,0.62,1,1,1,0,0,-18.5083498190499,-4.99468296766281E-05,0.129132899455726,-0.00022994354709872,
0.63,0.63,1,1,1,0,0,-18.5084293074354,-4.85964119434357E-05,0.129030430689454,-1.80676582167484E-05,
0.64,0.64,1,1,1,0,0,-18.5085022765626,-9.28714871406555E-05,0.127685135230422,0.00017154962080026,
0.65,0.65,1,1,1,0,0,-18.5085057224563,-5.77140599489212E-05,0.127912452444434,1.61118807809148E-05,
0.66,0.66,1,1,1,0,0,-18.5084659084143,-2.08150595426559E-05,0.129793980158865,-0.000476837165307999,
0.67,0.67,1,1,1,0,0,-18.508505256795,-4.46662306785584E-05,0.129287797026336,-0.000757817190256091,
0.68,0.68,1,1,1,0,0,-18.5086478422879,-6.26780092716217E-05,0.126888644881546,-0.000179279598284746,
0.69,0.69,1,1,1,0,0,-18.5087500083792,-1.13900750875473E-05,0.124178817495704,0.000672694305667905,
0.7,0.7,1,1,1,0,0,-18.5089601613282,1.19209289550781E-06,0.121240415610373,0.000639073560223337,
0.72,0.72,1,1,1,0,0,-18.5103972386952,-4.22913581132889E-05,0.119289862923324,0.000185240062851096,
0.73,0.73,1,1,1,0,0,-18.5114150346192,-1.03935599327087E-05,0.120072145946324,0.000159069898114465,
0.74,0.74,1,1,1,0,0,-18.5125073829188,-5.01330941915512E-05,0.121741318143904,8.49366200704873E-05,
0.75,0.75,1,1,1,0,0,-18.5135268552236,-7.25500285625458E-05,0.123564004898071,-0.000254251066658366,
0.76,0.76,1,1,1,0,0,-18.5142966399342,-4.21516597270966E-05,0.123687596060336,0.000158417972302521,
0.77,0.77,1,1,1,0,0,-18.5148590190976,-1.28336250782013E-05,0.122234299778938,0.00057676807905321,
0.78,0.78,1,1,1,0,0,-18.5152615832996,-6.26500695943832E-05,0.122342552058399,-0.000144355001216289,
0.79,0.79,1,1,1,0,0,-18.515336415072,-3.48221510648727E-05,0.121646141633391,-0.000786036264687404,
0.8,0.8,1,1,1,0,0,-18.5153440519175,2.3283064365387E-06,0.120758120901883,-0.000388734048436638,
0.81,0.81,1,1,1,0,0,-18.5154764859939,5.40167093276978E-07,0.120608126744628,0.000127125533329183,
0.82,0.82,1,1,1,0,0,-18.5154787677343,-5.59911131858826E-05,0.121398707851768,0.000133365394672081,
0.83,0.83,1,1,1,0,0,-18.5154072421572,-5.1446259021759E-05,0.121349170804024,-8.61473394355271E-05,
0.85,0.85,1,1,1,0,0,-18.515431363413,-1.51805579662323E-05,0.120557080954313,0.000385846948412312,
0.86,0.86,1,1,1,0,0,-18.5153974167035,-3.55485826730728E-05,0.1218581199646,0.000213924798576655,
0.87,0.87,1,1,1,0,0,-18.515338557114,-3.47290188074112E-05,0.124785834923387,-0.000244379047220349,
0.88,0.88,1,1,1,0,0,-18.5152313153145,-1.6847625374794E-05,0.125865591689944,-0.000233482572934991,
0.89,0.89,1,1,1,0,0,-18.5153353906171,-1.73225998878479E-05,0.122978235594928,0.000251084569857493,
0.9,0.9,1,1,1,0,0,-18.5153686388346,-6.92345201969147E-05,0.121279265731573,0.000473763800765974,
0.91,0.91,1,1,1,0,0,-18.5153800475367,-8.88947397470474E-05,0.123302740976214,0.000155158343242798,
0.92,0.92,1,1,1,0,0,-18.515450222696,-3.62284481525421E-05,0.124685377813876,5.84870585573092E-05,
0.93,0.93,1,1,1,0,0,-18.5153951349631,-2.26311385631561E-05,0.124535760842264,0.000222586098649632,
0.94,0.94,1,1,1,0,0,-18.5154178126689,-5.31598925590515E-05,0.12542855925858,-6.14672908404842E-05,
0.95,0.95,1,1,1,0,0,-18.5154433774748,-4.88664954900742E-05,0.125368209555745,-0.00033844262865806,
0.97,0.97,1,1,1,0,0,-18.5152697789386,-1.81328505277634E-05,0.124060506932437,0.000483170158909746,
0.98,0.98,1,1,1,0,0,-18.5153185336777,-7.29039311408997E-05,0.124564301222563,0.000248104337574318,
0.99,0.99,1,1,1,0,0,-18.515301909569,-7.80262053012848E-05,0.123832309618592,-0.000309664760673651,
1,1,1,1,1,0,0,-18.5153182542809,-5.69969415664673E-06,0.123055558651686,4.40515584356803E-05,
1.01,1.01,1,1,1,0,0,-18.5152945521203,3.42912971973419E-05,0.122272772714496,0.000501330949385343,
1.02,1.02,1,1,1,0,0,-18.5153377189237,-2.06008553504944E-05,0.122960256412625,0.000299233947682539,
1.03,1.03,1,1,1,0,0,-18.5154263342708,-7.35558569431305E-05,0.123876063153148,-0.000125728549446445,
1.04,1.04,1,1,1,0,0,-18.5153760894156,-5.81424683332443E-05,0.124325542710721,-0.000311154876815239,
1.05,1.05,1,1,1,0,0,-18.5154591633932,-7.44126737117767E-06,0.120125580579042,0.000264681879649479,
1.06,1.06,1,1,1,0,0,-18.5155499673485,3.92086803913116E-06,0.116440351121128,0.000403448945334814,
1.07,1.07,1,1,1,0,0,-18.5155270102459,-5.47803938388824E-05,0.117535823956132,-0.00027650967652333,
1.08,1.08,1,1,1,0,0,-18.5156300145276,-7.91158527135849E-05,0.121627282351255,-0.000289920721797617,
1.09,1.09,1,1,1,0,0,-18.5157664067251,-3.50549817085266E-05,0.126538616605103,0.000160094352961807,
1.1,1.1,1,1,1,0,0,-18.5158654528856,-4.2840838432312E-06,0.128132477402687,0.000187009575769231,
1.11,1.11,1,1,1,0,0,-18.5162497165982,-8.40518623590469E-05,0.126224043779075,0.000110268594477475,
1.12,1.12,1,1,1,0,0,-18.5169241338726,-7.90506601333618E-05,0.125539326108992,8.73580588005669E-05,
1.13,1.13,1,1,1,0,0,-18.5177338257574,1.12038105726242E-05,0.126480027101934,0.000109057875112435,
1.14,1.14,1,1,1,0,0,-18.5185683839562,1.34948641061783E-05,0.126325129531324,6.25848779466748E-05,
1.15,1.15,1,1,1,0,0,-18.5193379358361,-7.31088221073151E-05,0.123625863343477,-0.000231340530981459,
1.17,1.17,1,1,1,0,0,-18.5204975256289,-4.16580587625504E-05,0.124397207982838,-8.92207039775513E-05,
1.18,1.18,1,1,1,0,0,-18.520869914978,2.23517417907715E-06,0.123703563585877,-9.22940685195755E-05,
1.19,1.19,1,1,1,0,0,-18.5212937599019,-2.53040343523026E-05,0.124763329513371,-0.000192131850005938,
1.2,1.2,1,1,1,0,0,-18.5215385114861,-3.40491533279419E-05,0.126032559201121,-0.000128895046247318,
1.21,1.21,1,1,1,0,0,-18.521613529523,-4.82611358165741E-05,0.125640411861241,0.000122841449422119,
1.22,1.22,1,1,1,0,0,-18.5216071499631,-1.88872218132019E-05,0.126353921368718,1.60187485220656E-05,
1.23,1.23,1,1,1,0,0,-18.5216185586652,-4.00468707084656E-07,0.127119733951986,2.88710002432577E-05,
1.24,1.24,1,1,1,0,0,-18.52172766311,-2.45962291955948E-05,0.128053645603359,6.9476665101517E-05,
1.25,1.25,1,1,1,0,0,-18.5217618892162,-6.61332160234451E-05,0.129703455604613,-4.04194003405608E-05,
1.26,1.26,1,1,1,0,0,-18.5216991646379,-6.50063157081604E-06,0.128868618048728,-6.69620941125881E-05,
1.27,1.27,1,1,1,0,0,-18.5217234255921,2.68407166004181E-05,0.127516407519579,-0.000367406761160167,
1.28,1.28,1,1,1,0,0,-18.5217318540618,-1.97067856788635E-05,0.128356902860105,-0.00061374158581635,
1.29,1.29,1,1,1,0,0,-18.5217522500271,-7.76629894971848E-05,0.129103478975594,-7.76723038802482E-05,
1.3,1.3,1,1,1,0,0,-18.5217897823287,-6.75581395626068E-05,0.129064754582942,0.000276789073299877,
1.31,1.31,1,1,1,0,0,-18.5217033090235,-3.74484807252884E-05,0.126408613286912,0.000322144483359447,
1.32,1.32,1,1,1,0,0,-18.5216020742548,-3.03052365779877E-05,0.124205471947789,0.000224635008344315,
1.33,1.33,1,1,1,0,0,-18.5216196296862,-6.2873587012291E-05,0.125411963090301,3.72529035396874E-07,
1.34,1.34,1,1,1,0,0,-18.5217522965933,-3.10223549604416E-05,0.125986039638519,-8.01868748691771E-05,
1.35,1.35,1,1,1,0,0,-18.5218724837772,6.17466866970062E-06,0.124548836611211,-2.18860808295663E-05,
1.36,1.36,1,1,1,0,0,-18.5218208885041,-3.30246984958649E-05,0.124427257105708,-0.000237021598771261,
1.37,1.37,1,1,1,0,0,-18.5217054976317,-9.64570790529251E-05,0.126686724834144,-0.000184867533815699,
1.38,1.38,1,1,1,0,0,-18.5217385130185,-8.10436904430389E-05,0.127618624828756,9.12696136722341E-05,
1.39,1.39,1,1,1,0,0,-18.5218977226202,-4.25893813371658E-05,0.126095926389098,6.38887295705639E-05,
1.4,1.4,1,1,1,0,0,-18.5219051732011,-5.46686351299286E-05,0.125619163736701,-9.84407976036239E-05,
1.42,1.42,1,1,1,0,0,-18.5218772800887,-1.84867531061172E-05,0.127555131912231,-7.3760749008581E-05,
1.43,1.43,1,1,1,0,0,-18.5220121821701,-5.26849180459976E-05,0.127899753861129,-0.000301189725118373,
1.44,1.44,1,1,1,0,0,-18.5222317414774,-5.07477670907974E-05,0.128237209282815,8.50297523293365E-05,
1.45,1.45,1,1,1,0,0,-18.5225143513261,-5.7462602853775E-06,0.127785340882838,0.000162515791691886,
1.46,1.46,1,1,1,0,0,-18.5228538649868,-2.79396772384644E-05,0.126187582500279,5.90458521104045E-05,
1.47,1.47,1,1,1,0,0,-18.5232683501184,-6.27990812063217E-05,0.12502446770668,0.000159628691667561,
1.48,1.48,1,1,1,0,0,-18.523835432461,-9.48645174503326E-05,0.125231291167438,0.000110082329959776,
1.49,1.49,1,1,1,0,0,-18.5244047499779,-5.58141618967056E-05,0.127950171008706,0.000109989197700927,
1.5,1.5,1,1,1,0,0,-18.5250052668025,-4.9760565161705E-05,0.130706895142794,0.000205729159797924,
1.51,1.51,1,1,1,0,0,-18.5257166575849,-6.02006912231445E-05,0.130947413854301,-1.22934581680968E-05,
1.52,1.52,1,1,1,0,0,-18.5261800837201,-8.6221843957901E-05,0.129196643829346,5.46686359444913E-05,
1.53,1.53,1,1,1,0,0,-18.5263925184094,-5.54323196411133E-05,0.128171830438077,0.000622961679442422,
1.54,1.54,1,1,1,0,0,-18.5265839052076,-9.97446477413177E-06,0.128775578923523,0.000473018742695181,
1.55,1.55,1,1,1,0,0,-18.5267204371035,2.12620943784714E-05,0.127917481586337,-0.000292062763751149,
1.56,1.56,1,1,1,0,0,-18.5268787619487,-3.25590372085571E-05,0.127478437498212,-0.000313948844580716,
1.57,1.57,1,1,1,0,0,-18.5270821162426,-5.91948628425598E-05,0.126870037056506,-5.64381488626264E-05,
1.58,1.58,1,1,1,0,0,-18.527130638151,-5.1502138376236E-05,0.126763167791069,6.79865489599295E-05,
1.59,1.59,1,1,1,0,0,-18.5271446079903,-2.42516398429871E-05,0.128141781315207,-0.000130571426906604,
1.6,1.6,1,1,1,0,0,-18.5271775302449,-5.19957393407822E-05,0.127083901315928,-0.00038249418709374,
1.61,1.61,1,1,1,0,0,-18.5271753882028,-5.6922435760498E-05,0.126166208647192,-0.000214856121165147,
1.62,1.62,1,1,1,0,0,-18.5272201382547,-4.61563467979431E-05,0.126175764016807,0.000375043606385803,
1.63,1.63,1,1,1,0,0,-18.5271965757924,-2.19698995351791E-05,0.126872300170362,-1.18277968738507E-05,
1.64,1.64,1,1,1,0,0,-18.5271507081534,-4.50387597084045E-05,0.127152926288545,-0.000366847967607072,
1.65,1.65,1,1,1,0,0,-18.527122116549,-2.67568975687027E-05,0.126671134494245,-1.45286323804781E-05,
1.66,1.66,1,1,1,0,0,-18.5270711732018,-1.69128179550171E-05,0.126969236880541,-6.52857134533022E-05,
1.68,1.68,1,1,1,0,0,-18.5271838166725,-2.3525208234787E-05,0.127247096970677,-0.000510737307529114,
1.69,1.69,1,1,1,0,0,-18.5271975536812,-6.99423253536224E-05,0.125318295322359,0.000103190542804934,
1.7,1.7,1,1,1,0,0,-18.527290685943,-7.58003443479538E-05,0.125593263655901,0.000268500302262297,
1.71,1.71,1,1,1,0,0,-18.5274305240343,-3.46451997756958E-06,0.126265408471227,-5.97909101811983E-05,
1.72,1.72,1,1,1,0,0,-18.5274497092802,-1.88499689102173E-05,0.127201331779361,-0.000222213569614235,
1.73,1.73,1,1,1,0,0,-18.5275247273172,-3.47290188074112E-05,0.127886049449444,-0.000405963516323743,
1.74,1.74,1,1,1,0,0,-18.5275738545853,-4.89875674247742E-05,0.128024853765965,-8.4377826517392E-05,
1.75,1.75,1,1,1,0,0,-18.5276431915543,-4.40236181020737E-05,0.128366583958268,0.000115763397749579,
1.76,1.76,1,1,1,0,0,-18.5278551140162,-5.62891364097595E-05,0.129315960220993,9.14558781899326E-05,
1.77,1.77,1,1,1,0,0,-18.5281609137981,-5.6438148021698E-05,0.127807720564306,0.000561401256343089,
1.78,1.78,1,1,1,0,0,-18.5285555617578,-5.54230064153671E-05,0.123411999084055,0.000453554100595694,
1.79,1.79,1,1,1,0,0,-18.5290166130203,-2.90386378765106E-05,0.119975837878883,-0.000103749336358029,
1.8,1.8,1,1,1,0,0,-18.5295406216918,-2.46148556470871E-05,0.123965456150472,-0.000269617889368488,
1.81,1.81,1,1,1,0,0,-18.5301883565732,-5.7518482208252E-05,0.127670173533261,3.5390258362703E-06,
1.82,1.82,1,1,1,0,0,-18.5307263816501,-5.12320548295975E-05,0.127784837968647,0.000286195431443648,
1.83,1.83,1,1,1,0,0,-18.5311161867322,-1.05705112218857E-05,0.125886336900294,0.000160187485220656,
1.84,1.84,1,1,1,0,0,-18.5315489257871,-2.99420207738876E-05,0.126070654951036,-0.000202748927514749,
1.85,1.85,1,1,1,0,0,-18.5318209185579,-6.96722418069839E-05,0.12644243426621,-8.46572232939396E-05,
1.86,1.86,1,1,1,0,0,-18.5320399190717,-6.56209886074066E-05,0.128087592311203,3.85567551635765E-05,
1.87,1.87,1,1,1,0,0,-18.5322493735287,-3.23820859193802E-05,0.128157245926559,0.000102166087957593,
1.88,1.88,1,1,1,0,0,-18.5322991527227,-3.14228236675262E-05,0.122841191478074,0.000256486240870748,
1.89,1.89,1,1,1,0,0,-18.5323205265768,-5.44916838407516E-05,0.121736791916192,0.000130012633353509,
1.9,1.9,1,1,1,0,0,-18.5324346135976,-5.28059899806976E-05,0.127608440816402,-0.000401772564675529,
1.91,1.91,1,1,1,0,0,-18.5324676755506,-1.47521495819092E-05,0.12954767793417,-0.000355951493321713,
1.92,1.92,1,1,1,0,0,-18.5324175238276,-1.40350311994553E-05,0.128414612263441,0.000191386791935144,
1.93,1.93,1,1,1,0,0,-18.5323304917288,-4.53740358352661E-05,0.129104610532522,0.000493694104159707,
1.94,1.94,1,1,1,0,0,-18.5322727497265,-7.07432627677917E-05,0.128938900306821,0.000136625023731804,
1.95,1.95,1,1,1,0,0,-18.5323197349526,-8.07270407676697E-05,0.126738776452839,-0.000502821065526931,
1.96,1.96,1,1,1,0,0,-18.5324224598374,-6.06756657361984E-05,0.125589240342379,-0.000636000195681313,
1.97,1.97,1,1,1,0,0,-18.5324520293306,-6.86291605234146E-05,0.125590120442212,6.5658242488699E-05,
1.98,1.98,1,1,1,0,0,-18.5324485834369,-7.71228224039078E-05,0.12701487634331,0.000777468096873276,
1.99,1.99,1,1,1,0,0,-18.532457850097,-7.65454024076462E-05,0.128508405759931,0.00054575503685642,
2,2,1,1,1,0,0,-18.5324748467348,-5.90644776821136E-05,0.127163738943636,-8.90344394598529E-05,
2.01,2.01,1,1,1,0,0,-18.5324253469376,-5.76488673686981E-05,0.125661282800138,-0.000415463006726364,
2.03,2.03,1,1,1,0,0,-18.532573799763,-7.12182372808456E-05,0.130156204104424,-0.000182632359603317,
2.05,2.05,1,1,1,0,0,-18.5326983641633,-4.64543700218201E-05,0.129465451464057,-0.000280234966877298,
2.06,2.06,1,1,1,0,0,-18.53282236977,-3.35928052663803E-05,0.128060434944928,4.19095164821483E-05,
2.08,2.08,1,1,1,0,0,-18.5330496590551,-5.10178506374359E-05,0.126869534142315,-0.000380445277399058,
2.1,2.1,1,1,1,0,0,-18.5339091301339,-2.89827585220337E-05,0.128629482351243,0.000147055836722916,
2.12,2.12,1,1,1,0,0,-18.5351759617262,-7.46361911296844E-05,0.129533470608294,3.42726712565124E-05,
2.14,2.14,1,1,1,0,0,-18.5361747121027,2.6356428861618E-06,0.129647003486753,0.000358093535275245,
2.16,2.16,1,1,1,0,0,-18.5367145998248,-5.7341530919075E-05,0.127250868827105,-6.57513747475482E-05,
2.18,2.18,1,1,1,0,0,-18.5371993998141,-2.66823917627335E-05,0.129306404851377,0.00014901161415875,
2.2,2.2,1,1,1,0,0,-18.5374934183648,-3.25683504343033E-05,0.129535105079412,-0.00040996820345426,
2.22,2.22,1,1,1,0,0,-18.5374123001647,-5.33461570739746E-05,0.127641633152962,0.000155344607760496,
2.24,2.24,1,1,1,0,0,-18.5375682501372,-6.17280602455139E-05,0.126893799751997,-0.000547152020739159,
