"Total Time (s)","Cycle Elapsed Time (s)","Total Cycles","Elapsed Cycles","Step","Total Cycle Count(Tah-Tlak Waveform)","Total Cycle Count(Krut Waveform)","Position(Tah-Tlak:Position) (mm)","Load(Tah-Tlak:Load) (kN)","Rotation(Krut:Rotation) (deg)","Torque(Krut:Torque) (N·m)",
0,0,1,1,1,0,0,-17.9999565407712,-2.99885869026184E-06,0.126201789826155,-0.000355858361062864,
0.01,0.01,1,1,1,0,0,-18.000058567164,1.91386789083481E-05,0.127063910476863,4.47034842476249E-05,
0.02,0.02,1,1,1,0,0,-18.0001095570774,1.33365392684937E-05,0.126775237731636,-0.000131782146271644,
0.04,0.04,1,1,1,0,0,-18.0000528395299,7.16187059879303E-06,0.125512923114002,-6.74277554068342E-05,
0.05,0.05,1,1,1,0,0,-18.0000618733593,2.64961272478104E-05,0.126078701578081,0.00047311187495403,
0.07,0.07,1,1,1,0,0,-18.0000024084101,-2.60397791862488E-05,0.127671430818737,-0.000715721409256244,
0.09,0.09,1,1,1,0,0,-18.0000265762321,7.27083534002304E-05,0.125946938060224,0.000321399425288653,
0.1,0.1,1,1,1,0,0,-18.0000216402222,7.61914998292923E-05,0.125818569213152,5.57862230506819E-05,
0.12,0.12,1,1,1,0,0,-18.0000947956139,-2.77906656265259E-05,0.124329566024244,-0.00061020255998008,
0.13,0.13,1,1,1,0,0,-18.0001874622145,3.53530049324036E-05,0.125433462671936,-0.000146403910910971,
0.14,0.14,1,1,1,0,0,-18.0001842957176,7.54278153181076E-05,0.125391972251236,-0.00052675605605118,
0.16,0.16,1,1,1,0,0,-18.000213259851,-3.08826565742493E-05,0.125090475194156,9.99309137452114E-05,
0.17,0.17,1,1,1,0,0,-18.000255215935,-1.44261866807938E-05,0.124556883238256,0.000266358260308765,
0.19,0.19,1,1,1,0,0,-18.0004462767703,-4.91738319396973E-06,0.125670209527016,-0.000482052571803555,
0.2,0.2,1,1,1,0,0,-18.000583460592,-1.54972076416016E-05,0.125108957290649,-0.000316742812346192,
0.22,0.22,1,1,1,0,0,-18.0011179000769,2.5331974029541E-06,0.123427212238312,-0.000306591396131627,
0.23,0.23,1,1,1,0,0,-18.0015477054655,-1.04866921901703E-05,0.122096878476441,-0.000446569181182003,
0.25,0.25,1,1,1,0,0,-18.0036070926064,1.79558992385864E-05,0.123424571938813,3.06405131613929E-05,
0.26,0.26,1,1,1,0,0,-18.0048354605745,4.46103513240814E-05,0.123771457001567,3.90224164578225E-05,
0.27,0.27,1,1,1,0,0,-18.0058493915097,1.4258548617363E-05,0.123525783419609,-0.000545009978785627,
0.28,0.28,1,1,1,0,0,-18.0065683725714,-2.55554914474487E-05,0.123551306314766,-0.000478699810484983,
0.3,0.3,1,1,1,0,0,-18.0071841165209,4.49828803539276E-05,0.122390454635024,-0.000272411857133964,
0.31,0.31,1,1,1,0,0,-18.0072183891933,5.47245144844055E-05,0.124071445316076,-0.000741984706251724,
0.32,0.32,1,1,1,0,0,-18.0072686340485,1.09989196062088E-05,0.123614170588553,-0.000332761560868258,
0.33,0.33,1,1,1,0,0,-18.0072906598285,2.01165676116943E-05,0.121776019223034,0.000616628685840676,
0.34,0.34,1,1,1,0,0,-18.0072989951659,5.4510310292244E-05,0.122711439616978,0.000489968813805738,
0.35,0.35,1,1,1,0,0,-18.0072888437494,3.53250652551651E-05,0.124119222164154,-0.000216159972789036,
0.37,0.37,1,1,1,0,0,-18.0072407409361,5.40167093276978E-05,0.125306854024529,-8.38190329642966E-05,
0.38,0.38,1,1,1,0,0,-18.0072525687334,4.84008342027664E-05,0.123372520320117,0.000237766656842055,
0.39,0.39,1,1,1,0,0,-18.0071599486989,7.17118382453918E-07,0.122571000829339,-6.89178715484217E-06,
0.4,0.4,1,1,1,0,0,-18.0071466307855,-5.29922544956207E-05,0.122913359664381,-0.000246521089173881,
0.41,0.41,1,1,1,0,0,-18.0071775972625,9.85339283943176E-06,0.122446781024337,-0.000179838391837841,
0.43,0.43,1,1,1,0,0,-18.0071951526939,1.27777457237244E-05,0.123011427931488,-0.000537745662595388,
0.44,0.44,1,1,1,0,0,-18.0072504732575,-1.99116766452789E-05,0.121095953509212,-0.00088661910424456,
0.45,0.45,1,1,1,0,0,-18.0072300772921,1.61211937665939E-05,0.119705270044506,-0.000419560826115729,
0.46,0.46,1,1,1,0,0,-18.0072023238781,6.75488263368607E-05,0.120498239994049,-0.000105053187981918,
0.47,0.47,1,1,1,0,0,-18.0071535225728,6.54160976409912E-05,0.122096124105155,-0.000280607495912695,
0.49,0.49,1,1,1,0,0,-18.0072468410993,-1.42119824886322E-05,0.125782988034189,-9.86270621213224E-05,
0.5,0.5,1,1,1,0,0,-18.0072426035813,9.02451574802399E-06,0.127239930443466,-1.788139369905E-05,
0.51,0.51,1,1,1,0,0,-18.0072368293811,2.9783695936203E-05,0.126176266930997,-0.000267382715156106,
0.52,0.52,1,1,1,0,0,-18.0072944316851,-1.83470547199249E-05,0.124230240471661,-0.000257045034423843,
0.53,0.53,1,1,1,0,0,-18.0072506129559,-1.99489295482636E-05,0.122604193165898,0.000323634599501034,
0.54,0.54,1,1,1,0,0,-18.0072554558335,1.83656811714172E-05,0.123270303010941,0.000237394127806658,
0.55,0.55,1,1,1,0,0,-18.007214384506,5.9083104133606E-05,0.124262552708387,-0.000590831050139442,
0.56,0.56,1,1,1,0,0,-18.007317155957,8.27014446258545E-06,0.123870656825602,-0.000613834718075199,
0.57,0.57,1,1,1,0,0,-18.007544398676,-3.54461371898651E-05,0.121582271531224,0.000336673115739925,
0.59,0.59,1,1,1,0,0,-18.0077372290242,3.21120023727417E-05,0.122965411283076,-0.000266730789344162,
0.6,0.6,1,1,1,0,0,-18.0080538787146,1.31316483020782E-05,0.125448675826192,-0.000200513753302367,
0.61,0.61,1,1,1,0,0,-18.0085170720191,-1.1613592505455E-05,0.125789023004472,0.000116880984855769,
0.62,0.62,1,1,1,0,0,-18.0092440158893,-5.58793544769287E-07,0.126115288585424,-0.000154692681948552,
0.63,0.63,1,1,1,0,0,-18.0100418799768,1.78534537553787E-05,0.126969739794731,-0.000661704699123697,
0.64,0.64,1,1,1,0,0,-18.010804027842,1.2572854757309E-06,0.126312682405114,-0.00084852801037523,
0.65,0.65,1,1,1,0,0,-18.0114934394106,1.04214996099472E-05,0.125302202068269,-0.000208988788857646,
0.66,0.66,1,1,1,0,0,-18.0120545612884,1.85426324605942E-05,0.12402982916683,0.00041471794865557,
0.67,0.67,1,1,1,0,0,-18.0124123288725,2.30316072702408E-05,0.123028149828315,-6.50063166767545E-05,
0.68,0.68,1,1,1,0,0,-18.0126053920513,7.55302608013153E-06,0.123123452067375,-0.000663474212041832,
0.69,0.69,1,1,1,0,0,-18.0128057195467,1.38953328132629E-05,0.122479596175253,-0.000176485630519269,
0.7,0.7,1,1,1,0,0,-18.0129255342016,3.5800039768219E-05,0.121803930960596,0.00021094456629348,
0.72,0.72,1,1,1,0,0,-18.0128465580435,-1.41840428113937E-05,0.123455752618611,-0.000769179325835695,
0.73,0.73,1,1,1,0,0,-18.0129437881249,1.25635415315628E-05,0.123845259658992,-0.000366289174053976,
0.74,0.74,1,1,1,0,0,-18.0129120300236,6.72601163387299E-05,0.123865753412247,-0.000284612183043212,
0.75,0.75,1,1,1,0,0,-18.0128196893859,3.3937394618988E-05,0.124151660129428,-0.000384077435494177,
0.76,0.76,1,1,1,0,0,-18.0127795028149,-4.60073351860046E-06,0.125993709079921,-5.05708165551256E-05,
0.77,0.77,1,1,1,0,0,-18.0128726350768,-6.4261257648468E-07,0.127582037821412,0.000371970241843779,
0.78,0.78,1,1,1,0,0,-18.0129774088714,3.50736081600189E-05,0.126433633267879,0.000279396776547655,
0.79,0.79,1,1,1,0,0,-18.0130254651186,3.1106173992157E-06,0.123804523609579,-0.000273995105534401,
0.8,0.8,1,1,1,0,0,-18.0130484222211,-4.83542680740356E-05,0.123502146452665,-0.000738166283638906,
0.81,0.81,1,1,1,0,0,-18.012936710073,-4.04100865125656E-05,0.126652023755014,-0.000153668227101211,
0.82,0.82,1,1,1,0,0,-18.012917152298,3.34717333316803E-05,0.128062195144594,0.000292994086339641,
0.83,0.83,1,1,1,0,0,-18.0130651394621,4.15835529565811E-05,0.126152629964054,-0.000314880167169208,
0.85,0.85,1,1,1,0,0,-18.0130641615734,-2.13552266359329E-05,0.124820661731064,-0.000260397795742415,
0.86,0.86,1,1,1,0,0,-18.0130197374845,-2.1420419216156E-06,0.126106487587094,0.000270642344215829,
0.87,0.87,1,1,1,0,0,-18.0130575957489,-8.05594027042389E-06,0.126739027909935,5.96046456634998E-05,
0.88,0.88,1,1,1,0,0,-18.0131853266461,-2.00513750314713E-05,0.125619289465249,-0.000281911347536584,
0.89,0.89,1,1,1,0,0,-18.013331451165,-2.92621552944183E-05,0.124650928191841,6.435439086481E-05,
0.9,0.9,1,1,1,0,0,-18.0134591820622,1.77044421434402E-05,0.126038971357048,0.000421330339033864,
0.91,0.91,1,1,1,0,0,-18.0136072623586,4.31947410106659E-05,0.127552365884185,-0.000128056855917675,
0.92,0.92,1,1,1,0,0,-18.0139484058339,7.1600079536438E-05,0.124201322905719,-0.000561587520860787,
0.93,0.93,1,1,1,0,0,-18.0144502024609,4.62587922811508E-05,0.121810594573617,-1.36904420508351E-05,
0.94,0.94,1,1,1,0,0,-18.0149354215453,2.89734452962875E-05,0.123685332946479,0.000339280818987703,
0.95,0.95,1,1,1,0,0,-18.0153931666125,-2.44937837123871E-05,0.125071741640568,-0.000165123494939664,
0.97,0.97,1,1,1,0,0,-18.0163973186601,8.15838575363159E-06,0.121984477154911,2.35624614888523E-05,
0.98,0.98,1,1,1,0,0,-18.0168084044641,4.64636832475662E-05,0.123727954924107,0.000269617889368488,
0.99,0.99,1,1,1,0,0,-18.0171687797515,1.6428530216217E-05,0.126381958834827,-0.000470876700741649,
1,1,1,1,1,0,0,-18.0173960690366,-3.42726707458496E-06,0.12702883221209,-0.000949855908003179,
1.01,1.01,1,1,1,0,0,-18.0176545110633,-1.06543302536011E-05,0.1266371877864,-0.000538770117442729,
1.02,1.02,1,1,1,0,0,-18.0178481796019,4.2356550693512E-05,0.126878335140646,1.11758710619062E-05,
1.03,1.03,1,1,1,0,0,-18.0179519755078,2.65054404735565E-05,0.127013493329287,-2.37487260065507E-05,
1.04,1.04,1,1,1,0,0,-18.018054840091,-1.34389847517014E-05,0.126121449284256,-0.000341329728682386,
1.05,1.05,1,1,1,0,0,-18.0180777040613,-3.47103923559189E-05,0.12652478646487,-0.00013345852693093,
1.06,1.06,1,1,1,0,0,-18.0181247824197,2.00420618057251E-05,0.124797401949763,0.000136904420508351,
1.07,1.07,1,1,1,0,0,-18.0181647827262,2.99792736768723E-05,0.12442147359252,-0.000273063782945909,
1.08,1.08,1,1,1,0,0,-18.0181469013319,-1.90269201993942E-05,0.125848618336022,-0.000851508242658405,
1.09,1.09,1,1,1,0,0,-18.0181957492033,-3.03424894809723E-05,0.124367661774158,-0.00055050478205773,
1.1,1.1,1,1,1,0,0,-18.0182746787952,2.22586095333099E-05,0.118850944563746,0.000110454858995173,
1.11,1.11,1,1,1,0,0,-18.0182194513639,5.47803938388824E-05,0.117284744046628,-0.000454671687701885,
1.12,1.12,1,1,1,0,0,-18.018226250019,-1.29267573356628E-05,0.122238448821008,-0.000751763593430892,
1.13,1.13,1,1,1,0,0,-18.0182829210004,-5.66523522138596E-05,0.126412762328982,-0.000239163640724793,
1.14,1.14,1,1,1,0,0,-18.0183423393835,8.61473381519318E-06,0.126595194451511,0.000560004272460351,
1.15,1.15,1,1,1,0,0,-18.0184484635959,5.60097396373749E-05,0.125989937223494,0.000143330546368947,
1.17,1.17,1,1,1,0,0,-18.0185123988937,-4.20771539211273E-05,0.126773100346327,-0.000385101890341518,
1.18,1.18,1,1,1,0,0,-18.0185854611531,-2.14390456676483E-05,0.127025563269854,0.000253412876328724,
1.19,1.19,1,1,1,0,0,-18.0185876031951,8.30739736557007E-06,0.127712418325245,-6.08153650285397E-05,
1.2,1.2,1,1,1,0,0,-18.0186419924361,1.36904418468475E-05,0.128844478167593,-0.000436231500449739,
1.21,1.21,1,1,1,0,0,-18.0187954744037,-3.40864062309265E-06,0.129639711230993,-0.000291224573421506,
1.22,1.22,1,1,1,0,0,-18.0190162444305,-1.22934579849243E-06,0.129512725397944,0.000125356020411048,
1.23,1.23,1,1,1,0,0,-18.0193562237525,4.75626438856125E-05,0.129232727922499,-0.000218208882483719,
1.24,1.24,1,1,1,0,0,-18.0198142947826,4.2058527469635E-05,0.128256445750594,-0.000675767670209929,
1.25,1.25,1,1,1,0,0,-18.0203258702971,3.68803739547729E-06,0.125060300342739,-0.000403355813075965,
1.26,1.26,1,1,1,0,0,-18.0208182139996,-5.96977770328522E-06,0.122878407128155,0.000104494394428823,
1.27,1.27,1,1,1,0,0,-18.0212550974401,2.24821269512177E-05,0.126522523351014,-0.000205449763021376,
1.28,1.28,1,1,1,0,0,-18.0216513752144,3.41795384883881E-06,0.129585145041347,-0.000640470544106076,
1.29,1.29,1,1,1,0,0,-18.0218814584674,1.20420008897781E-05,0.128892380744219,-0.000419374561598031,
1.3,1.3,1,1,1,0,0,-18.0221008315102,2.00234353542328E-05,0.126020237803459,4.16301197056007E-05,
1.31,1.31,1,1,1,0,0,-18.022351450427,3.43378633260727E-05,0.124592087231576,2.44006518184952E-05,
1.32,1.32,1,1,1,0,0,-18.0224907762907,1.47148966789246E-05,0.125932353548706,-0.000263750557060987,
1.33,1.33,1,1,1,0,0,-18.0226266096947,2.67196446657181E-05,0.120121682994068,-0.000341795389976632,
1.34,1.34,1,1,1,0,0,-18.0228505927845,1.61398202180862E-05,0.114877545274794,-0.000332947825385956,
1.35,1.35,1,1,1,0,0,-18.0229931317114,1.50687992572784E-05,0.115735013969243,-0.000429991639106842,
1.36,1.36,1,1,1,0,0,-18.0230008616891,1.17719173431396E-05,0.117165553383529,-0.000523030765697211,
1.37,1.37,1,1,1,0,0,-18.0230375558003,3.53902578353882E-07,0.117589635774493,-0.000265240673202574,
1.38,1.38,1,1,1,0,0,-18.0230758331599,2.00234353542328E-05,0.11686191894114,0.000214204195353203,
1.39,1.39,1,1,1,0,0,-18.0231095936048,6.24265521764755E-05,0.1176229538396,-0.000218953940554513,
1.4,1.4,1,1,1,0,0,-18.0231034003094,1.74157321453094E-05,0.118192881345749,-0.000513903804329988,
1.42,1.42,1,1,1,0,0,-18.0232827264797,-2.57045030593872E-06,0.119949686340988,-0.000111572446101364,
1.43,1.43,1,1,1,0,0,-18.0233468946081,6.80610537528992E-05,0.125123667530715,0.000152736904512718,
1.44,1.44,1,1,1,0,0,-18.0233495954437,2.91783362627029E-05,0.129336579702795,-3.98606067874655E-05,
1.45,1.45,1,1,1,0,0,-18.0233777679529,1.2274831533432E-05,0.128633631393313,-0.000367406761160167,
1.46,1.46,1,1,1,0,0,-18.0233961615747,1.98371708393097E-06,0.125370221212506,-0.000502355404232685,
1.47,1.47,1,1,1,0,0,-18.0234364878441,2.14390456676483E-05,0.126353041268885,-0.000548549004621897,
1.48,1.48,1,1,1,0,0,-18.0235083393841,2.65426933765411E-06,0.127422865480185,-0.000375695532197747,
1.49,1.49,1,1,1,0,0,-18.0236259188647,-1.49756669998169E-05,0.12525970581919,0.000178068878919706,
1.5,1.5,1,1,1,0,0,-18.0237524390425,1.11199915409088E-05,0.124300271272659,0.000690575699366955,
1.51,1.51,1,1,1,0,0,-18.0239648737319,2.7073547244072E-05,0.125059420242906,0.000381004070952153,
1.52,1.52,1,1,1,0,0,-18.0243990563368,-1.44634395837784E-05,0.125901172868907,-9.22009362607263E-05,
1.53,1.53,1,1,1,0,0,-18.0248387337451,-2.98861414194107E-05,0.126518248580396,-0.000374391680573858,
1.54,1.54,1,1,1,0,0,-18.0251896561079,-5.98840415477753E-06,0.126526043750346,2.29105356769077E-05,
1.55,1.55,1,1,1,0,0,-18.0256795318054,4.30643558502197E-05,0.127294748090208,0.000320095573664764,
1.56,1.56,1,1,1,0,0,-18.026171549545,2.61422246694565E-05,0.128247644752264,6.81728134776279E-05,
1.57,1.57,1,1,1,0,0,-18.0264684086297,-8.67061316967011E-06,0.127539793029428,-0.000101979823439894,
1.58,1.58,1,1,1,0,0,-18.0266764195367,5.39235770702362E-06,0.12836545240134,-0.00025387853762297,
1.59,1.59,1,1,1,0,0,-18.026923685692,2.8582289814949E-05,0.130537413060665,-0.00021336600502356,
1.6,1.6,1,1,1,0,0,-18.0271631287373,1.54227018356323E-05,0.130089442245662,-0.000228639695474831,
1.61,1.61,1,1,1,0,0,-18.0273162381758,-1.04308128356934E-06,0.129157667979598,-0.000151153656112282,
1.62,1.62,1,1,1,0,0,-18.0274333985613,3.3574178814888E-05,0.129979681223631,0.000193342569370978,
1.63,1.63,1,1,1,0,0,-18.0275436671593,4.75626438856125E-05,0.131272547878325,0.000581983485548766,
1.64,1.64,1,1,1,0,0,-18.0275918165387,1.29174441099167E-05,0.131332017481327,0.000259652737671621,
1.65,1.65,1,1,1,0,0,-18.0276710255275,-3.33506613969803E-05,0.130944396369159,-0.000162888320727283,
1.66,1.66,1,1,1,0,0,-18.0277422251417,-9.32253897190094E-06,0.130355986766517,-4.75905842719506E-05,
1.68,1.68,1,1,1,0,0,-18.0278505379622,2.77906656265259E-05,0.128550273366272,0.000144075604439741,
1.69,1.69,1,1,1,0,0,-18.0279021798015,-4.59514558315277E-05,0.13023667037487,8.67992652474716E-05,
1.7,1.7,1,1,1,0,0,-18.0279445084145,-1.09151005744934E-05,0.131981028243899,5.57862230506819E-05,
1.71,1.71,1,1,1,0,0,-18.0279774772352,6.50901347398758E-05,0.130855003371835,-6.82659457364772E-05,
1.72,1.72,1,1,1,0,0,-18.0279988976554,4.7292560338974E-05,0.128591638058424,-0.000235717747147372,
1.73,1.73,1,1,1,0,0,-18.0280404812104,-2.04518437385559E-05,0.128327356651425,-0.000134948643072518,
1.74,1.74,1,1,1,0,0,-18.028235593299,-5.60656189918518E-06,0.129104484803975,0.000132061543048192,
1.75,1.75,1,1,1,0,0,-18.0284171080774,5.22751361131668E-05,0.128369224257767,0.0001311302204597,
1.76,1.76,1,1,1,0,0,-18.0284429522801,5.31133264303207E-05,0.127522191032767,-0.000221561643802291,
1.77,1.77,1,1,1,0,0,-18.0285644898819,-1.86916440725327E-05,0.128282220102847,-0.000236928466512412,
1.78,1.78,1,1,1,0,0,-18.028787867612,7.21774995326996E-06,0.12812971137464,-2.4307519559646E-05,
1.79,1.79,1,1,1,0,0,-18.0289939227414,4.00654971599579E-05,0.127795021981001,0.000227428976109792,
1.8,1.8,1,1,1,0,0,-18.0292858458163,3.77465039491653E-05,0.129437791183591,-0.000261794779625153,
1.81,1.81,1,1,1,0,0,-18.0296261976673,-1.60932540893555E-05,0.129477018490434,-0.000657513747475483,
1.82,1.82,1,1,1,0,0,-18.0299286912539,1.17719173431396E-05,0.12761787045747,-0.000107381494453149,
1.83,1.83,1,1,1,0,0,-18.0302546541705,4.06987965106964E-05,0.1268081786111,0.000615417966475636,
1.84,1.84,1,1,1,0,0,-18.0304391491813,3.53436917066574E-05,0.126953017897904,0.000384449964529574,
1.85,1.85,1,1,1,0,0,-18.0305739115643,-2.43633985519409E-05,0.126219266094267,1.89989808052406E-05,
1.86,1.86,1,1,1,0,0,-18.0308530755193,1.22934579849243E-06,0.12533011380583,-2.36555937477015E-05,
1.87,1.87,1,1,1,0,0,-18.0311465818426,1.24797224998474E-05,0.126127609983087,-5.19678004378639E-05,
1.88,1.88,1,1,1,0,0,-18.0314497273551,-2.88709998130798E-07,0.128704416565597,-0.000336766247998774,
1.89,1.89,1,1,1,0,0,-18.0316400896983,1.09709799289703E-05,0.128578562289476,-0.000526942320568878,
1.9,1.9,1,1,1,0,0,-18.0317623723582,2.56672501564026E-05,0.128703410737216,2.3003667935757E-05,
1.91,1.91,1,1,1,0,0,-18.0320264954529,1.03376805782318E-06,0.128582711331546,0.000624172398807462,
1.93,1.93,1,1,1,0,0,-18.0322207227851,-1.18650496006012E-05,0.12184667866677,-0.000537093736783443,
1.94,1.94,1,1,1,0,0,-18.0324125286784,6.85453414916992E-06,0.122375870123506,-0.000227428976109792,
1.95,1.95,1,1,1,0,0,-18.0325052884113,3.65357846021652E-05,0.127484346739948,0.000374298548315009,
1.96,1.96,1,1,1,0,0,-18.0325924602084,4.71156090497971E-05,0.128372870385647,0.000105053187981918,
1.97,1.97,1,1,1,0,0,-18.0327226125444,-1.50874257087708E-05,0.127597125247121,-0.000443961477934225,
1.98,1.98,1,1,1,0,0,-18.0327614952637,-1.80862843990326E-05,0.127333598211408,-1.47148968981765E-05,
1.99,1.99,1,1,1,0,0,-18.0329128817554,1.24517828226089E-05,0.127094965428114,0.000678189108940009,
2,2,1,1,1,0,0,-18.0330614277131,3.2307580113411E-05,0.128215458244085,8.85687781656068E-05,
2.01,2.01,1,1,1,0,0,-18.0331212186252,-1.98371708393097E-06,0.128276688046753,-0.00043017790362454,
2.03,2.03,1,1,1,0,0,-18.0333449688844,1.32713466882706E-05,0.126757761463523,0.000442471361792637,
2.05,2.05,1,1,1,0,0,-18.0335028746344,1.28988176584244E-05,0.128785134293139,-0.000760797422539266,
2.06,2.06,1,1,1,0,0,-18.0336252504266,5.40167093276978E-06,0.126713127829134,-9.5926226614695E-05,
2.08,2.08,1,1,1,0,0,-18.0339581982628,5.15207648277283E-05,0.127246342599392,0.000204890969468281,
2.1,2.1,1,1,1,0,0,-18.0343048831077,1.04773789644241E-05,0.130848339758813,-4.84287746015936E-06,
2.12,2.12,1,1,1,0,0,-18.0348904056381,2.24728137254715E-05,0.128210932016373,0.000366102909536278,
2.14,2.14,1,1,1,0,0,-18.035340560426,1.16042792797089E-05,0.125707047991455,0.000448524958617836,
2.16,2.16,1,1,1,0,0,-18.0359705070453,1.43423676490784E-06,0.125865214504302,-0.000138022007614542,
2.18,2.18,1,1,1,0,0,-18.036447996152,-2.22120434045792E-05,0.126467454247177,4.25614422940929E-05,
2.2,2.2,1,1,1,0,0,-18.0369225981586,2.5993213057518E-05,0.125063695013523,0.000138767065685336,
2.22,2.22,1,1,1,0,0,-18.0372454411444,-3.38349491357803E-05,0.126809687353671,0.00026579946675567,
2.24,2.24,1,1,1,0,0,-18.0374638362985,3.82214784622192E-05,0.124318627640605,0.000369362538596001,
2.26,2.26,1,1,1,0,0,-18.0374805535396,4.47966158390045E-06,0.124893584288657,1.27591194623429E-05,
2.28,2.28,1,1,1,0,0,-18.0376412066913,3.83239239454269E-05,0.123834824189544,0.000223889950273521,
